# UV-VIS Spectrum
# X-Axis:  Excitation Energy (nm)
# Y-Axis:  Epsilon
#                  X                   Y               DY/DX
      100.0000000000        0.0000000000        0.0000000000
      110.0000000000        0.0000000000        0.0000000000
      120.0000000000        0.0000000000        0.0000000000
      130.0000000000        0.0000000000        0.0000000000
      140.0000000000        0.0000000000        0.0000000000
      150.0000000000        0.0000000000        0.0000000000
      160.0000000000        0.0000000000        0.0000000000
      170.0000000000        0.0000000000        0.0000000000
      180.0000000000        0.0000000000        0.0000000000
      190.0000000000        0.0000000000        0.0000000000
      200.0000000000        0.0000000000        0.0000000000
      210.0000000000        0.0000000000        0.0000000000
      220.0000000000        0.0000000000        0.0000000000
      230.0000000000        0.0000000000        0.0000000000
      240.0000000000        0.0000000000        0.0000000000
      250.0000000000        0.0000000054        0.0000000000
      260.0000000000        0.0000005736        0.0000000000
      270.0000000000        0.0000290237        0.0000000000
      280.0000000000        0.0007850957        0.0000000001
      290.0000000000        0.0125502242        0.0000000201
      300.0000000000        0.1287471648        0.0000020606
      310.0000000000        0.9074717452        0.0000960429
      320.0000000000        4.6522649875        0.0022863058
      330.0000000000       18.1968565589        0.0306360806
      340.0000000000       56.5456319299        0.2506713717
      350.0000000000      144.4987143304        1.3409124900
      360.0000000000      312.8232977880        4.9663787500
      370.0000000000      588.7396877071       13.3656840431
      380.0000000000      985.3065362261       27.2241578143
      390.0000000000     1495.9377369810       43.4587207278
      400.0000000000     2096.9738122599       56.0996091110
      410.0000000000     2756.0565846092       60.4629617661
      420.0000000000     3441.2617573522       56.6752634160
      430.0000000000     4126.8910336614       49.1711427080
      440.0000000000     4794.7681044152       43.0793167949
      450.0000000000     5432.3781932023       40.9586013842
      460.0000000000     6030.0456186325       42.0852383494
      470.0000000000     6578.8168242516       43.8926320275
      480.0000000000     7069.6838052830       43.8946743515
      490.0000000000     7493.9523033178       40.8360975319
      500.0000000000     7844.1906680660       34.8135690173
      510.0000000000     8115.2110940234       26.7676622121
      520.0000000000     8304.7370966089       17.8564377261
      530.0000000000     8413.6331765889        9.0233425092
      540.0000000000     8445.7303513417        0.8356875833
      550.0000000000     8407.3587837788       -6.4741594940
      560.0000000000     8306.7154008617      -12.8748544303
      570.0000000000     8153.1774392645      -18.3995758921
      580.0000000000     7956.6437471481      -23.0561288630
      590.0000000000     7726.9567038602      -26.7955741494
      600.0000000000     7473.4337896662      -29.5274764582
      610.0000000000     7204.5199814699      -31.1599593817
      620.0000000000     6927.5594360664      -31.6431584277
      630.0000000000     6648.6762354909      -31.0008040441
      640.0000000000     6372.7484274734      -29.3426165140
      650.0000000000     6103.4565897521      -26.8572715389
      660.0000000000     5843.3872254706      -23.7905159758
      670.0000000000     5594.1720427132      -20.4152563877
      680.0000000000     5356.6461556044      -17.0004938941
      690.0000000000     5131.0110284373      -13.7845678765
      700.0000000000     4916.9911516314      -10.9560818166
      710.0000000000     4713.9766318037       -8.6437630964
      720.0000000000     4521.1468254167       -6.9147775526
      730.0000000000     4337.5726678324       -5.7798737342
      740.0000000000     4162.2973570419       -5.2031842216
      750.0000000000     3994.3965268057       -5.1144593921
      760.0000000000     3833.0200235742       -5.4217979967
      770.0000000000     3677.4179546187       -6.0234107212
      780.0000000000     3526.9538863307       -6.8174758338
      790.0000000000     3381.1080290771       -7.7096276140
      800.0000000000     3239.4730291575       -8.6180058194
      810.0000000000     3101.7446682229       -9.4760682881
      820.0000000000     2967.7094009241      -10.2335326074
      830.0000000000     2837.2302833861      -10.8558840713
      840.0000000000     2710.2324865021      -11.3228892691
      850.0000000000     2586.6892664455      -11.6265112469
      860.0000000000     2466.6089892448      -11.7685538587
      870.0000000000     2350.0235796031      -11.7582856693
      880.0000000000     2236.9785848884      -11.6102187185
      890.0000000000     2127.5249092566      -11.3421513826
      900.0000000000     2021.7121745721      -10.9735307669
      910.0000000000     1919.5835980095      -10.5241493296
      920.0000000000     1821.1722348580      -10.0131619201
      930.0000000000     1726.4984134542       -9.4583913880
      940.0000000000     1635.5681823737       -8.8758812620
      950.0000000000     1548.3725937966       -8.2796506033
      960.0000000000     1464.8876578834       -7.6816071001
      970.0000000000     1385.0748183248       -7.0915781949
      980.0000000000     1308.8818168748       -6.5174252810
      990.0000000000     1236.2438330904       -5.9652118491
     1000.0000000000     1167.0848035981       -5.4394022852
     1010.0000000000     1101.3188422515       -4.9430734018
     1020.0000000000     1038.8516980870       -4.4781255210
     1030.0000000000      979.5822017905       -4.0454839150
     1040.0000000000      923.4036633779       -3.6452846448
     1050.0000000000      870.2051939870       -3.2770413745
     1060.0000000000      819.8729331904       -2.9397916533
     1070.0000000000      772.2911701931       -2.6322225447
     1080.0000000000      727.3433528656       -2.3527764402
     1090.0000000000      684.9129829342       -2.0997385091
     1100.0000000000      644.8843989945       -1.8713075869
     1110.0000000000      607.1434514866       -1.6656524640
     1120.0000000000      571.5780755230       -1.4809555516
     1130.0000000000      538.0787686216       -1.3154458277
     1140.0000000000      506.5389810943       -1.1674228259
     1150.0000000000      476.8554271644       -1.0352732624
     1160.0000000000      448.9283249248       -0.9174817094
     1170.0000000000      422.6615730803       -0.8126365349
     1180.0000000000      397.9628720893       -0.7194321535
     1190.0000000000      374.7437968874       -0.6366684610
     1200.0000000000      352.9198278762       -0.5632481801
     1210.0000000000      332.4103463228       -0.4981727094
     1220.0000000000      313.1385997604       -0.4405369521
     1230.0000000000      295.0316424325       -0.3895235054
     1240.0000000000      278.0202552856       -0.3443965040
     1250.0000000000      262.0388495069       -0.3044953472
     1260.0000000000      247.0253571228       -0.2692284767
     1270.0000000000      232.9211117291       -0.2380673318
     1280.0000000000      219.6707220130       -0.2105405673
     1290.0000000000      207.2219403582       -0.1862285918
     1300.0000000000      195.5255284836       -0.1647584617
     1310.0000000000      184.5351217685       -0.1457991487
     1320.0000000000      174.2070936474       -0.1290571831
     1330.0000000000      164.5004212204       -0.1142726687
     1340.0000000000      155.3765530176       -0.1012156563
     1350.0000000000      146.7992796723       -0.0896828580
     1360.0000000000      138.7346081029       -0.0794946825
     1370.0000000000      131.1506396619       -0.0704925679
     1380.0000000000      124.0174525985       -0.0625365916
     1390.0000000000      117.3069890778       -0.0555033314
     1400.0000000000      110.9929469165       -0.0492839585
     1410.0000000000      105.0506761246       -0.0437825385
     1420.0000000000       99.4570802811       -0.0389145220
     1430.0000000000       94.1905227264       -0.0346054050
     1440.0000000000       89.2307375100       -0.0307895420
     1450.0000000000       84.5587450045       -0.0274090955
     1460.0000000000       80.1567720672       -0.0244131072
     1470.0000000000       76.0081766145       -0.0217566781
     1480.0000000000       72.0973764573       -0.0194002445
     1490.0000000000       68.4097822360       -0.0173089398
     1500.0000000000       64.9317342855       -0.0154520323
     1510.0000000000       61.6504432579       -0.0138024292
     1520.0000000000       58.5539343271       -0.0123362411
     1530.0000000000       55.6309948015       -0.0110323974
     1540.0000000000       52.8711249690       -0.0098723094
     1550.0000000000       50.2644920080       -0.0088395722
     1560.0000000000       47.8018867944       -0.0079197043
     1570.0000000000       45.4746834461       -0.0070999174
     1580.0000000000       43.2748014473       -0.0063689143
     1590.0000000000       41.1946702043       -0.0057167115
     1600.0000000000       39.2271958868       -0.0051344828
     1610.0000000000       37.3657304198       -0.0046144222
     1620.0000000000       35.6040424927       -0.0041496228
     1630.0000000000       33.9362904625       -0.0037339706
     1640.0000000000       32.3569970321       -0.0033620512
     1650.0000000000       30.8610255924       -0.0030290676
     1660.0000000000       29.4435581211       -0.0027307676
     1670.0000000000       28.1000745399       -0.0024633802
     1680.0000000000       26.8263334350       -0.0022235597
     1690.0000000000       25.6183540518       -0.0020083360
     1700.0000000000       24.4723994818       -0.0018150712
     1710.0000000000       23.3849609624       -0.0016414215
     1720.0000000000       22.3527432163       -0.0014853028
     1730.0000000000       21.3726507621       -0.0013448616
     1740.0000000000       20.4417751312       -0.0012184482
     1750.0000000000       19.5573829301       -0.0011045936
     1760.0000000000       18.7169046935       -0.0010019891
     1770.0000000000       17.9179244723       -0.0009094681
     1780.0000000000       17.1581701103       -0.0008259901
     1790.0000000000       16.4355041611       -0.0007506266
     1800.0000000000       15.7479154034       -0.0006825488
     1810.0000000000       15.0935109142       -0.0006210161
     1820.0000000000       14.4705086617       -0.0005653666
     1830.0000000000       13.8772305841       -0.0005150083
     1840.0000000000       13.3120961205       -0.0004694115
     1850.0000000000       12.7736161645       -0.0004281021
     1860.0000000000       12.2603874104       -0.0003906553
     1870.0000000000       11.7710870685       -0.0003566904
     1880.0000000000       11.3044679209       -0.0003258658
     1890.0000000000       10.8593536987       -0.0002978753
     1900.0000000000       10.4346347563       -0.0002724439
     1910.0000000000       10.0292640243       -0.0002493246
     1920.0000000000        9.6422532223       -0.0002282952
     1930.0000000000        9.2726693133       -0.0002091562
     1940.0000000000        8.9196311849       -0.0001917279
     1950.0000000000        8.5823065414       -0.0001758486
     1960.0000000000        8.2599089929       -0.0001613727
     1970.0000000000        7.9516953286       -0.0001481689
     1980.0000000000        7.6569629618       -0.0001361189
     1990.0000000000        7.3750475357       -0.0001251159
     2000.0000000000        7.1053206788       -0.0001150634
     2010.0000000000        6.8471879005       -0.0001058746
     2020.0000000000        6.6000866180       -0.0000974707
     2030.0000000000        6.3634843054       -0.0000897806
     2040.0000000000        6.1368767564       -0.0000827400
     2050.0000000000        5.9197864555       -0.0000762906
     2060.0000000000        5.7117610479       -0.0000703798
     2070.0000000000        5.5123719037       -0.0000649599
     2080.0000000000        5.3212127691       -0.0000599874
     2090.0000000000        5.1378985001       -0.0000554231
     2100.0000000000        4.9620638722       -0.0000512314
     2110.0000000000        4.7933624625       -0.0000473801
     2120.0000000000        4.6314655983       -0.0000438395
     2130.0000000000        4.4760613695       -0.0000405832
     2140.0000000000        4.3268536986       -0.0000375868
     2150.0000000000        4.1835614677       -0.0000348281
     2160.0000000000        4.0459176952       -0.0000322872
     2170.0000000000        3.9136687629       -0.0000299457
     2180.0000000000        3.7865736870       -0.0000277869
     2190.0000000000        3.6644034329       -0.0000257956
     2200.0000000000        3.5469402692       -0.0000239580
     2210.0000000000        3.4339771597       -0.0000222614
     2220.0000000000        3.3253171899       -0.0000206943
     2230.0000000000        3.2207730277       -0.0000192461
     2240.0000000000        3.1201664137       -0.0000179072
     2250.0000000000        3.0233276817       -0.0000166687
     2260.0000000000        2.9300953062       -0.0000155227
     2270.0000000000        2.8403154752       -0.0000144617
     2280.0000000000        2.7538416874       -0.0000134790
     2290.0000000000        2.6705343727       -0.0000125685
     2300.0000000000        2.5902605326       -0.0000117244
     2310.0000000000        2.5128934023       -0.0000109416
     2320.0000000000        2.4383121300       -0.0000102153
     2330.0000000000        2.3664014753       -0.0000095411
     2340.0000000000        2.2970515235       -0.0000089151
     2350.0000000000        2.2301574158       -0.0000083336
     2360.0000000000        2.1656190945       -0.0000077931
     2370.0000000000        2.1033410612       -0.0000072906
     2380.0000000000        2.0432321497       -0.0000068232
     2390.0000000000        1.9852053098       -0.0000063882
     2400.0000000000        1.9291774031       -0.0000059833
     2410.0000000000        1.8750690102       -0.0000056063
     2420.0000000000        1.8228042480       -0.0000052550
     2430.0000000000        1.7723105962       -0.0000049276
     2440.0000000000        1.7235187339       -0.0000046224
     2450.0000000000        1.6763623839       -0.0000043377
     2460.0000000000        1.6307781660       -0.0000040720
     2470.0000000000        1.5867054578       -0.0000038240
     2480.0000000000        1.5440862619       -0.0000035924
     2490.0000000000        1.5028650816       -0.0000033761
     2500.0000000000        1.4629888014       -0.0000031739
     2510.0000000000        1.4244065749       -0.0000029849
     2520.0000000000        1.3870697177       -0.0000028082
     2530.0000000000        1.3509316060       -0.0000026428
     2540.0000000000        1.3159475807       -0.0000024881
     2550.0000000000        1.2820748559       -0.0000023432
     2560.0000000000        1.2492724321       -0.0000022075
     2570.0000000000        1.2175010139       -0.0000020804
     2580.0000000000        1.1867229321       -0.0000019613
     2590.0000000000        1.1569020687       -0.0000018496
     2600.0000000000        1.1280037872       -0.0000017448
     2610.0000000000        1.0999948648       -0.0000016465
     2620.0000000000        1.0728434287       -0.0000015543
     2630.0000000000        1.0465188959       -0.0000014677
     2640.0000000000        1.0209919147       -0.0000013863
     2650.0000000000        0.9962343107       -0.0000013099
     2660.0000000000        0.9722190339       -0.0000012381
     2670.0000000000        0.9489201094       -0.0000011706
     2680.0000000000        0.9263125899       -0.0000011071
     2690.0000000000        0.9043725108       -0.0000010474
     2700.0000000000        0.8830768472       -0.0000009912
     2710.0000000000        0.8624034732       -0.0000009384
     2720.0000000000        0.8423311229       -0.0000008886
     2730.0000000000        0.8228393534       -0.0000008416
     2740.0000000000        0.8039085095       -0.0000007975
     2750.0000000000        0.7855196899       -0.0000007558
     2760.0000000000        0.7676547154       -0.0000007165
     2770.0000000000        0.7502960980       -0.0000006795
     2780.0000000000        0.7334270117       -0.0000006446
     2790.0000000000        0.7170312651       -0.0000006116
     2800.0000000000        0.7010932743       -0.0000005805
     2810.0000000000        0.6855980380       -0.0000005511
     2820.0000000000        0.6705311130       -0.0000005234
     2830.0000000000        0.6558785914       -0.0000004972
     2840.0000000000        0.6416270781       -0.0000004724
     2850.0000000000        0.6277636705       -0.0000004490
     2860.0000000000        0.6142759375       -0.0000004269
     2870.0000000000        0.6011519012       -0.0000004059
     2880.0000000000        0.5883800177       -0.0000003861
     2890.0000000000        0.5759491602       -0.0000003674
     2900.0000000000        0.5638486021       -0.0000003496
     2910.0000000000        0.5520680008       -0.0000003328
     2920.0000000000        0.5405973823       -0.0000003169
     2930.0000000000        0.5294271271       -0.0000003019
     2940.0000000000        0.5185479556       -0.0000002876
     2950.0000000000        0.5079509149       -0.0000002740
     2960.0000000000        0.4976273662       -0.0000002612
     2970.0000000000        0.4875689722       -0.0000002490
     2980.0000000000        0.4777676856       -0.0000002375
     2990.0000000000        0.4682157375       -0.0000002265
     3000.0000000000        0.4589056272       -0.0000002161
     3010.0000000000        0.4498301115       -0.0000002063
     3020.0000000000        0.4409821947       -0.0000001969
     3030.0000000000        0.4323551197       -0.0000001880
     3040.0000000000        0.4239423583       -0.0000001795
     3050.0000000000        0.4157376029       -0.0000001715
     3060.0000000000        0.4077347582       -0.0000001638
     3070.0000000000        0.3999279331       -0.0000001566
     3080.0000000000        0.3923114330       -0.0000001497
     3090.0000000000        0.3848797524       -0.0000001431
     3100.0000000000        0.3776275684       -0.0000001369
     3110.0000000000        0.3705497332       -0.0000001309
     3120.0000000000        0.3636412682       -0.0000001252
     3130.0000000000        0.3568973576       -0.0000001199
     3140.0000000000        0.3503133424       -0.0000001147
     3150.0000000000        0.3438847147       -0.0000001098
     3160.0000000000        0.3376071122       -0.0000001052
     3170.0000000000        0.3314763130       -0.0000001007
     3180.0000000000        0.3254882307       -0.0000000965
     3190.0000000000        0.3196389092       -0.0000000925
     3200.0000000000        0.3139245181       -0.0000000886
     3210.0000000000        0.3083413484       -0.0000000849
     3220.0000000000        0.3028858082       -0.0000000814
     3230.0000000000        0.2975544184       -0.0000000781
     3240.0000000000        0.2923438088       -0.0000000749
     3250.0000000000        0.2872507142       -0.0000000719
     3260.0000000000        0.2822719709       -0.0000000690
     3270.0000000000        0.2774045130       -0.0000000662
     3280.0000000000        0.2726453692       -0.0000000635
     3290.0000000000        0.2679916592       -0.0000000610
