# UV-VIS Spectrum
# X-Axis:  Excitation Energy (nm)
# Y-Axis:  Epsilon
#                  X                   Y               DY/DX
      104.0000000000        0.0000000000        0.0000000000
      120.0000000000        0.0000000000        0.0000000000
      136.0000000000        0.0000000000        0.0000000000
      152.0000000000        0.0000000000        0.0000000000
      168.0000000000        0.0000000000        0.0000000000
      184.0000000000        0.0000000000        0.0000000000
      200.0000000000        0.0000000000        0.0000000000
      216.0000000000        0.0000000000        0.0000000000
      232.0000000000        0.0000000000        0.0000000000
      248.0000000000        0.0000000006        0.0000000000
      264.0000000000        0.0000011432        0.0000000000
      280.0000000000        0.0003510683        0.0000000000
      296.0000000000        0.0278624187        0.0000000895
      312.0000000000        0.7901374517        0.0000592040
      328.0000000000       10.1772821300        0.0073384995
      344.0000000000       71.2531272130        0.2484064481
      360.0000000000      310.5868804842        3.0681141706
      376.0000000000      934.9805361395       17.3206369761
      392.0000000000     2106.0072263521       53.1325051180
      408.0000000000     3779.1255348380      100.4711370838
      424.0000000000     5677.7733830595      127.1263588174
      440.0000000000     7431.4409770317      111.7030460825
      456.0000000000     8748.0511550337       65.7304532624
      472.0000000000     9500.5585681253       17.0015287569
      488.0000000000     9713.0831030798      -16.9540802630
      504.0000000000     9498.5366977298      -35.0670049998
      520.0000000000     8997.8489675980      -43.2717280217
      536.0000000000     8341.6244458554      -46.2005512319
      552.0000000000     7633.2404402438      -45.5558207819
      568.0000000000     6945.2669666163      -41.7194581179
      584.0000000000     6322.2596589860      -35.1637860390
      600.0000000000     5785.9755554048      -26.8482204002
      616.0000000000     5341.1734708497      -18.0318153934
      632.0000000000     4981.1573490299       -9.9476650556
      648.0000000000     4692.6113780619       -3.5388889837
      664.0000000000     4459.4685852741        0.6835799923
      680.0000000000     4265.7143388720        2.6557797012
      696.0000000000     4097.1712582509        2.6739311514
      712.0000000000     3942.4194591068        1.2524353298
      728.0000000000     3793.0613743731       -1.0239237789
      744.0000000000     3643.5473166689       -3.6173245559
      760.0000000000     3490.7513321536       -6.1076179271
      776.0000000000     3333.4437409156       -8.2177423219
      792.0000000000     3171.7606853756       -9.8054528626
      808.0000000000     3006.7304461499      -10.8359388132
      824.0000000000     2839.8849837827      -11.3479691232
      840.0000000000     2672.9636151631      -11.4221512242
      856.0000000000     2507.7026222504      -11.1557488178
      872.0000000000     2345.6979061078      -10.6453244773
      888.0000000000     2188.3255144880       -9.9765195862
      904.0000000000     2036.7052832018       -9.2193848758
      920.0000000000     1891.6946686526       -8.4274971982
      936.0000000000     1753.9022502942       -7.6393189355
      952.0000000000     1623.7128198582       -6.8806341111
      968.0000000000     1501.3181648470       -6.1672814810
      984.0000000000     1386.7494753434       -5.5077268441
     1000.0000000000     1279.9087330962       -4.9052519270
     1016.0000000000     1180.5975114540       -4.3596905610
     1032.0000000000     1088.5423795489       -3.8687313710
     1048.0000000000     1003.4166258471       -3.4288489796
     1064.0000000000      924.8583527610       -3.0359394895
     1080.0000000000      852.4851952212       -2.6857333934
     1096.0000000000      785.9060221331       -2.3740486701
     1112.0000000000      724.7300214882       -2.0969339655
     1128.0000000000      668.5735706019       -1.8507393519
     1144.0000000000      617.0652690170       -1.6321415524
     1160.0000000000      569.8494744991       -1.4381421255
     1176.0000000000      526.5886398817       -1.2660508246
     1192.0000000000      486.9647051737       -1.1134618638
     1208.0000000000      450.6797582227       -0.9782277447
     1224.0000000000      417.4561399083       -0.8584332771
     1240.0000000000      387.0361370085       -0.7523711427
     1256.0000000000      359.1813776694       -0.6585195817
     1272.0000000000      333.6720206018       -0.5755223434
     1288.0000000000      310.3058093432       -0.5021708122
     1304.0000000000      288.8970466938       -0.4373881189
     1320.0000000000      269.2755312612       -0.3802150166
     1336.0000000000      251.2854874781       -0.3297973042
     1352.0000000000      234.7845120479       -0.2853746042
     1368.0000000000      219.6425531533       -0.2462703281
     1384.0000000000      205.7409336007       -0.2118826885
     1400.0000000000      192.9714250926       -0.1816766400
     1416.0000000000      181.2353777841       -0.1551766508
     1432.0000000000      170.4429069981       -0.1319602177
     1448.0000000000      160.5121372899       -0.1116520539
     1464.0000000000      151.3685028280       -0.0939188831
     1480.0000000000      142.9441022054       -0.0784647822
     1496.0000000000      135.1771052168       -0.0650270209
     1512.0000000000      128.0112087729       -0.0533723499
     1528.0000000000      121.3951389236       -0.0432936933
     1544.0000000000      115.2821958777       -0.0346072062
     1560.0000000000      109.6298389130       -0.0271496591
     1576.0000000000      104.3993081397       -0.0207761153
     1592.0000000000       99.5552801922       -0.0153578715
     1608.0000000000       95.0655550651       -0.0107806312
     1624.0000000000       90.9007714675       -0.0069428874
     1640.0000000000       87.0341482382       -0.0037544890
     1656.0000000000       83.4412495351       -0.0011353726
     1672.0000000000       80.0997716805        0.0009855613
     1688.0000000000       76.9893497113        0.0026714435
     1704.0000000000       74.0913818378        0.0039783172
     1720.0000000000       71.3888701685        0.0049559192
     1736.0000000000       68.8662761969        0.0056483726
     1752.0000000000       66.5093896773        0.0060948007
     1768.0000000000       64.3052096437        0.0063298731
     1784.0000000000       62.2418364307        0.0063842895
     1800.0000000000       60.3083736684        0.0062852108
     1816.0000000000       58.4948393108        0.0060566423
     1832.0000000000       56.7920848499        0.0057197748
     1848.0000000000       55.1917219444        0.0052932886
     1864.0000000000       53.6860557658        0.0047936249
     1880.0000000000       52.2680244291        0.0042352275
     1896.0000000000       50.9311439387        0.0036307590
     1912.0000000000       49.6694581291        0.0029912940
     1928.0000000000       48.4774931352        0.0023264914
     1944.0000000000       47.3502159668        0.0016447494
     1960.0000000000       46.2829968053        0.0009533433
     1976.0000000000       45.2715746758        0.0002585492
     1992.0000000000       44.3120261810       -0.0004342447
     2008.0000000000       43.4007370138       -0.0011204393
     2024.0000000000       42.5343759918       -0.0017961354
     2040.0000000000       41.7098713815       -0.0024580542
     2056.0000000000       40.9243893017       -0.0031034657
     2072.0000000000       40.1753140168       -0.0037301247
     2088.0000000000       39.4602299473       -0.0043362139
     2104.0000000000       38.7769052402       -0.0049202922
     2120.0000000000       38.1232767608       -0.0054812492
     2136.0000000000       37.4974363749       -0.0060182637
     2152.0000000000       36.8976184073       -0.0065307674
     2168.0000000000       36.3221881697       -0.0070184119
     2184.0000000000       35.7696314645       -0.0074810395
     2200.0000000000       35.2385449758       -0.0079186570
     2216.0000000000       34.7276274705       -0.0083314124
     2232.0000000000       34.2356717372       -0.0087195746
     2248.0000000000       33.7615571987       -0.0090835145
     2264.0000000000       33.3042431381       -0.0094236888
     2280.0000000000       32.8627624871       -0.0097406258
     2296.0000000000       32.4362161247       -0.0100349122
     2312.0000000000       32.0237676457       -0.0103071821
     2328.0000000000       31.6246385549       -0.0105581068
     2344.0000000000       31.2381038535       -0.0107883863
     2360.0000000000       30.8634879826       -0.0109987414
     2376.0000000000       30.5001610938       -0.0111899070
     2392.0000000000       30.1475356193       -0.0113626266
     2408.0000000000       29.8050631158       -0.0115176467
     2424.0000000000       29.4722313602       -0.0116557130
     2440.0000000000       29.1485616749       -0.0117775661
     2456.0000000000       28.8336064640       -0.0118839387
     2472.0000000000       28.5269469429       -0.0119755525
     2488.0000000000       28.2281910462       -0.0120531166
     2504.0000000000       27.9369714970       -0.0121173246
     2520.0000000000       27.6529440266       -0.0121688540
     2536.0000000000       27.3757857318       -0.0122083643
     2552.0000000000       27.1051935572       -0.0122364963
     2568.0000000000       26.8408828945       -0.0122538713
     2584.0000000000       26.5825862877       -0.0122610906
     2600.0000000000       26.3300522369       -0.0122587349
     2616.0000000000       26.0830440915       -0.0122473643
     2632.0000000000       25.8413390271       -0.0122275180
     2648.0000000000       25.6047270986       -0.0121997148
     2664.0000000000       25.3730103636       -0.0121644526
     2680.0000000000       25.1460020707       -0.0121222092
     2696.0000000000       24.9235259073       -0.0120734419
     2712.0000000000       24.7054153034       -0.0120185887
     2728.0000000000       24.4915127851       -0.0119580681
     2744.0000000000       24.2816693756       -0.0118922796
     2760.0000000000       24.0757440395       -0.0118216045
     2776.0000000000       23.8736031668       -0.0117464060
     2792.0000000000       23.6751200944       -0.0116670302
     2808.0000000000       23.4801746605       -0.0115838060
     2824.0000000000       23.2886527921       -0.0114970462
     2840.0000000000       23.1004461201       -0.0114070480
     2856.0000000000       22.9154516228       -0.0113140932
     2872.0000000000       22.7335712931       -0.0112184491
     2888.0000000000       22.5547118293       -0.0111203688
     2904.0000000000       22.3787843477       -0.0110200922
     2920.0000000000       22.2057041140       -0.0109178458
     2936.0000000000       22.0353902939       -0.0108138440
     2952.0000000000       21.8677657203       -0.0107082892
     2968.0000000000       21.7027566763       -0.0106013723
     2984.0000000000       21.5402926927       -0.0104932734
     3000.0000000000       21.3803063592       -0.0103841620
     3016.0000000000       21.2227331482       -0.0102741978
     3032.0000000000       21.0675112502       -0.0101635311
     3048.0000000000       20.9145814198       -0.0100523028
     3064.0000000000       20.7638868323       -0.0099406455
     3080.0000000000       20.6153729490       -0.0098286834
     3096.0000000000       20.4689873920       -0.0097165328
     3112.0000000000       20.3246798259       -0.0096043029
     3128.0000000000       20.1824018486       -0.0094920954
     3144.0000000000       20.0421068872       -0.0093800055
     3160.0000000000       19.9037501026       -0.0092681221
     3176.0000000000       19.7672882978       -0.0091565278
     3192.0000000000       19.6326798338       -0.0090452996
     3208.0000000000       19.4998845500       -0.0089345091
     3224.0000000000       19.3688636888       -0.0088242226
     3240.0000000000       19.2395798262       -0.0087145017
     3256.0000000000       19.1119968055       -0.0086054031
     3272.0000000000       18.9860796755       -0.0084969794
     3288.0000000000       18.8617946323       -0.0083892789
     3304.0000000000       18.7391089645       -0.0082823461
     3320.0000000000       18.6179910017       -0.0081762215
     3336.0000000000       18.4984100660       -0.0080709426
     3352.0000000000       18.3803364264       -0.0079665432
     3368.0000000000       18.2637412555       -0.0078630542
     3384.0000000000       18.1485965893       -0.0077605035
     3400.0000000000       18.0348752886       -0.0076589162
     3416.0000000000       17.9225510032       -0.0075583150
     3432.0000000000       17.8115981374       -0.0074587198
     3448.0000000000       17.7019918184       -0.0073601486
     3464.0000000000       17.5937078651       -0.0072626170
     3480.0000000000       17.4867227600       -0.0071661386
     3496.0000000000       17.3810136218       -0.0070707252
     3512.0000000000       17.2765581793       -0.0069763866
     3528.0000000000       17.1733347475       -0.0068831311
     3544.0000000000       17.0713222045       -0.0067909654
     3560.0000000000       16.9704999690       -0.0066998947
     3576.0000000000       16.8708479803       -0.0066099228
     3592.0000000000       16.7723466781       -0.0065210524
     3608.0000000000       16.6749769841       -0.0064332848
     3624.0000000000       16.5787202840       -0.0063466202
     3640.0000000000       16.4835584109       -0.0062610578
     3656.0000000000       16.3894736290       -0.0061765958
     3672.0000000000       16.2964486185       -0.0060932316
     3688.0000000000       16.2044664612       -0.0060109617
     3704.0000000000       16.1135106262       -0.0059297818
     3720.0000000000       16.0235649574       -0.0058496869
     3736.0000000000       15.9346136605       -0.0057706713
     3752.0000000000       15.8466412910       -0.0056927288
     3768.0000000000       15.7596327432       -0.0056158525
     3784.0000000000       15.6735732388       -0.0055400351
     3800.0000000000       15.5884483169       -0.0054652687
     3816.0000000000       15.5042438236       -0.0053915450
     3832.0000000000       15.4209459031       -0.0053188555
     3848.0000000000       15.3385409880       -0.0052471911
     3864.0000000000       15.2570157910       -0.0051765424
     3880.0000000000       15.1763572962       -0.0051068997
     3896.0000000000       15.0965527517       -0.0050382533
     3912.0000000000       15.0175896611       -0.0049705929
     3928.0000000000       14.9394557771       -0.0049039081
     3944.0000000000       14.8621390935       -0.0048381885
     3960.0000000000       14.7856278393       -0.0047734233
     3976.0000000000       14.7099104717       -0.0047096017
     3992.0000000000       14.6349756698       -0.0046467127
     4008.0000000000       14.5608123291       -0.0045847451
     4024.0000000000       14.4874095552       -0.0045236880
     4040.0000000000       14.4147566585       -0.0044635300
     4056.0000000000       14.3428431488       -0.0044042599
     4072.0000000000       14.2716587302       -0.0043458664
     4088.0000000000       14.2011932961       -0.0042883381
     4104.0000000000       14.1314369244       -0.0042316636
     4120.0000000000       14.0623798730       -0.0041758317
     4136.0000000000       13.9940125751       -0.0041208311
     4152.0000000000       13.9263256353       -0.0040666503
     4168.0000000000       13.8593098250       -0.0040132782
     4184.0000000000       13.7929560788       -0.0039607034
     4200.0000000000       13.7272554902       -0.0039089149
     4216.0000000000       13.6621993085       -0.0038579014
     4232.0000000000       13.5977789344       -0.0038076519
     4248.0000000000       13.5339859170       -0.0037581555
     4264.0000000000       13.4708119504       -0.0037094011
     4280.0000000000       13.4082488702       -0.0036613779
     4296.0000000000       13.3462886504       -0.0036140752
     4312.0000000000       13.2849234005       -0.0035674824
     4328.0000000000       13.2241453622       -0.0035215887
     4344.0000000000       13.1639469066       -0.0034763839
     4360.0000000000       13.1043205317       -0.0034318574
     4376.0000000000       13.0452588592       -0.0033879990
     4392.0000000000       12.9867546321       -0.0033447986
     4408.0000000000       12.9288007121       -0.0033022460
     4424.0000000000       12.8713900772       -0.0032603315
     4440.0000000000       12.8145158191       -0.0032190450
     4456.0000000000       12.7581711409       -0.0031783769
     4472.0000000000       12.7023493548       -0.0031383177
     4488.0000000000       12.6470438800       -0.0030988578
     4504.0000000000       12.5922482403       -0.0030599878
     4520.0000000000       12.5379560622       -0.0030216985
     4536.0000000000       12.4841610727       -0.0029839809
     4552.0000000000       12.4308570974       -0.0029468258
     4568.0000000000       12.3780380585       -0.0029102244
     4584.0000000000       12.3256979728       -0.0028741680
     4600.0000000000       12.2738309501       -0.0028386478
     4616.0000000000       12.2224311912       -0.0028036554
     4632.0000000000       12.1714929864       -0.0027691823
     4648.0000000000       12.1210107131       -0.0027352204
     4664.0000000000       12.0709788352       -0.0027017613
     4680.0000000000       12.0213919005       -0.0026687971
     4696.0000000000       11.9722445397       -0.0026363199
     4712.0000000000       11.9235314645       -0.0026043218
     4728.0000000000       11.8752474664       -0.0025727951
     4744.0000000000       11.8273874149       -0.0025417323
     4760.0000000000       11.7799462563       -0.0025111259
     4776.0000000000       11.7329190123       -0.0024809685
     4792.0000000000       11.6863007784       -0.0024512530
     4808.0000000000       11.6400867228       -0.0024219721
     4824.0000000000       11.5942720847       -0.0023931189
     4840.0000000000       11.5488521737       -0.0023646866
     4856.0000000000       11.5038223678       -0.0023366682
     4872.0000000000       11.4591781128       -0.0023090571
     4888.0000000000       11.4149149204       -0.0022818468
     4904.0000000000       11.3710283678       -0.0022550307
     4920.0000000000       11.3275140962       -0.0022286025
     4936.0000000000       11.2843678092       -0.0022025559
     4952.0000000000       11.2415852728       -0.0021768848
     4968.0000000000       11.1991623132       -0.0021515832
     4984.0000000000       11.1570948165       -0.0021266449
