# UV-VIS Spectrum
# X-Axis:  Excitation Energy (nm)
# Y-Axis:  Epsilon
#                  X                   Y               DY/DX
      100.0000000000        0.0000000000        0.0000000000
      114.0000000000        0.0000000000        0.0000000000
      128.0000000000        0.0000000000        0.0000000000
      142.0000000000        0.0000000000        0.0000000000
      156.0000000000        0.0000000000        0.0000000000
      170.0000000000        0.0000000000        0.0000000000
      184.0000000000        0.0000000000        0.0000000000
      198.0000000000        0.0000000000        0.0000000000
      212.0000000000        0.0000000000        0.0000000000
      226.0000000000        0.0000000000        0.0000000000
      240.0000000000        0.0000000000        0.0000000000
      254.0000000000        0.0000000074        0.0000000000
      268.0000000000        0.0000033260        0.0000000000
      282.0000000000        0.0004154462        0.0000000000
      296.0000000000        0.0191163830        0.0000000437
      310.0000000000        0.3998304525        0.0000152457
      324.0000000000        4.4658390719        0.0014308314
      338.0000000000       30.1790153459        0.0471510352
      352.0000000000      136.0612543275        0.6724270619
      366.0000000000      442.1684780849        4.8865980962
      380.0000000000     1101.8900011760       20.5361747291
      394.0000000000     2213.6442679810       54.9750266261
      408.0000000000     3734.4696428874      100.7854075194
      422.0000000000     5471.4379200428      133.2421338038
      436.0000000000     7158.4833049667      130.8989918421
      450.0000000000     8559.2397306696       95.1667762083
      464.0000000000     9534.0352981197       45.9993165944
      478.0000000000    10051.1776610804        3.4754236751
      492.0000000000    10159.6190419768      -23.7633278570
      506.0000000000     9950.1163660162      -37.4137597945
      520.0000000000     9523.1854276984      -42.9356978740
      534.0000000000     8969.7590915737      -44.6553183788
      548.0000000000     8362.7611342304      -44.4203450539
      562.0000000000     7755.4849891135      -42.4114044535
      576.0000000000     7183.3107345636      -38.3763422107
      590.0000000000     6666.6880543071      -32.4044038863
      604.0000000000     6214.3965392639      -25.1139102930
      618.0000000000     5826.6727741905      -17.4655628095
      632.0000000000     5498.0253572658      -10.4552154122
      646.0000000000     5219.6366201393       -4.8582001475
      660.0000000000     4981.2886439034       -1.0976368762
      674.0000000000     4772.7922373395        0.7643316058
      688.0000000000     4584.9420477987        0.9512066322
      702.0000000000     4410.0586473766       -0.1399835632
      716.0000000000     4242.2016282140       -2.0492951258
      730.0000000000     4077.1448887319       -4.3402044675
      744.0000000000     3912.1994052782       -6.6534948175
      758.0000000000     3745.9547769271       -8.7307221084
      772.0000000000     3577.9934756911      -10.4145691461
      786.0000000000     3408.6146106498      -11.6347919815
      800.0000000000     3238.5892687246      -12.3874741617
      814.0000000000     3068.9580466507      -12.7132619073
      828.0000000000     2900.8733038916      -12.6780684471
      842.0000000000     2735.4835225503      -12.3579024952
      856.0000000000     2573.8543301492      -11.8281731813
      870.0000000000     2416.9195757318      -11.1570384386
      884.0000000000     2265.4557794542      -10.4019912208
      898.0000000000     2120.0738505838       -9.6087888687
      912.0000000000     1981.2228616301       -8.8119089566
      926.0000000000     1849.2016578697       -8.0358712303
      940.0000000000     1724.1750374318       -7.2969407209
      954.0000000000     1606.1920849395       -6.6048878613
      968.0000000000     1495.2049510489       -5.9646119025
      982.0000000000     1391.0869370419       -5.3775304322
      996.0000000000     1293.6491788572       -4.8427032755
     1010.0000000000     1202.6555467067       -4.3576993656
     1024.0000000000     1117.8356050913       -3.9192368215
     1038.0000000000     1038.8956332939       -3.5236353592
     1052.0000000000      965.5278057706       -3.1671210479
     1066.0000000000      897.4176900123       -2.8460198400
     1080.0000000000      834.2502482438       -2.5568706666
     1094.0000000000      775.7145380003       -2.2964827346
     1108.0000000000      721.5073021521       -2.0619558685
     1122.0000000000      671.3356264357       -1.8506777418
     1136.0000000000      624.9188256583       -1.6603077787
     1150.0000000000      581.9897009736       -1.4887543567
     1164.0000000000      542.2952916550       -1.3341496011
     1178.0000000000      505.5972266543       -1.1948243793
     1192.0000000000      471.6717645423       -1.0692849500
     1206.0000000000      440.3095954768       -0.9561919517
     1220.0000000000      411.3154657302       -0.8543419412
     1234.0000000000      384.5076739939       -0.7626514052
     1248.0000000000      359.7174790511       -0.6801430225
     1262.0000000000      336.7884503116       -0.6059338936
     1276.0000000000      315.5757859634       -0.5392254400
     1290.0000000000      295.9456179366       -0.4792947003
     1304.0000000000      277.7743183283       -0.4254867788
     1318.0000000000      260.9478182536       -0.3772082434
     1332.0000000000      245.3609471218       -0.3339213033
     1346.0000000000      230.9167979733       -0.2951386343
     1360.0000000000      217.5261226463       -0.2604187446
     1374.0000000000      205.1067590790       -0.2293617979
     1388.0000000000      193.5830919252       -0.2016058307
     1402.0000000000      182.8855467957       -0.1768233121
     1416.0000000000      172.9501177942       -0.1547180073
     1430.0000000000      163.7179275391       -0.1350221138
     1444.0000000000      155.1348185241       -0.1174936433
     1458.0000000000      147.1509744398       -0.1019140286
     1472.0000000000      139.7205699302       -0.0880859372
     1486.0000000000      132.8014471743       -0.0758312744
     1500.0000000000      126.3548176506       -0.0649893623
     1514.0000000000      120.3449874438       -0.0554152806
     1528.0000000000      114.7391044854       -0.0469783563
     1542.0000000000      109.5069261689       -0.0395607916
     1556.0000000000      104.6206058449       -0.0330564185
     1570.0000000000      100.0544967740       -0.0273695689
     1584.0000000000       95.7849721946       -0.0224140518
     1598.0000000000       91.7902602419       -0.0181122282
     1612.0000000000       88.0502925376       -0.0143941740
     1626.0000000000       84.5465653483       -0.0111969241
     1640.0000000000       81.2620122899       -0.0084637907
     1654.0000000000       78.1808876292       -0.0061437471
     1668.0000000000       75.2886593075       -0.0041908725
     1682.0000000000       72.5719108751       -0.0025638516
     1696.0000000000       70.0182515939       -0.0012255234
     1710.0000000000       67.6162340209       -0.0001424738
     1724.0000000000       65.3552784436        0.0007153304
     1738.0000000000       63.2256035885        0.0013748721
     1752.0000000000       61.2181630732        0.0018603821
     1766.0000000000       59.3245871158        0.0021936075
     1780.0000000000       57.5371290557        0.0023940538
     1794.0000000000       55.8486162805        0.0024792037
     1808.0000000000       54.2524051836        0.0024647139
     1822.0000000000       52.7423398134        0.0023645932
     1836.0000000000       51.3127139011        0.0021913633
     1850.0000000000       49.9582359830        0.0019562035
     1864.0000000000       48.6739973548        0.0016690819
     1878.0000000000       47.4554426215        0.0013388740
     1892.0000000000       46.2983426243        0.0009734696
     1906.0000000000       45.1987695444        0.0005798697
     1920.0000000000       44.1530740038        0.0001642738
     1934.0000000000       43.1578639943       -0.0002678404
     1948.0000000000       42.2099854847       -0.0007116459
     1962.0000000000       41.3065045652       -0.0011629011
     1976.0000000000       40.4446910039       -0.0016178912
     1990.0000000000       39.6220030965       -0.0020733753
     2004.0000000000       38.8360737057       -0.0025265377
     2018.0000000000       38.0846973901       -0.0029749452
     2032.0000000000       37.3658185356       -0.0034165069
     2046.0000000000       36.6775204068       -0.0038494388
     2060.0000000000       36.0180150439       -0.0042722316
     2074.0000000000       35.3856339366       -0.0046836214
     2088.0000000000       34.7788194127       -0.0050825632
     2102.0000000000       34.1961166838       -0.0054682069
     2116.0000000000       33.6361664952       -0.0058398760
     2130.0000000000       33.0976983329       -0.0061970476
     2144.0000000000       32.5795241419       -0.0065393353
     2158.0000000000       32.0805325169       -0.0068664728
     2172.0000000000       31.5996833264       -0.0071782997
     2186.0000000000       31.1360027383       -0.0074747485
     2200.0000000000       30.6885786136       -0.0077558330
     2214.0000000000       30.2565562404       -0.0080216376
     2228.0000000000       29.8391343821       -0.0082723081
     2242.0000000000       29.4355616142       -0.0085080431
     2256.0000000000       29.0451329295       -0.0087290862
     2270.0000000000       28.6671865883       -0.0089357193
     2284.0000000000       28.3011011983       -0.0091282565
     2298.0000000000       27.9462930031       -0.0093070388
     2312.0000000000       27.6022133662       -0.0094724287
     2326.0000000000       27.2683464342       -0.0096248063
     2340.0000000000       26.9442069669       -0.0097645655
     2354.0000000000       26.6293383200       -0.0098921101
     2368.0000000000       26.3233105711       -0.0100078511
     2382.0000000000       26.0257187766       -0.0101122041
     2396.0000000000       25.7361813507       -0.0102055867
     2410.0000000000       25.4543385575       -0.0102884165
     2424.0000000000       25.1798511075       -0.0103611095
     2438.0000000000       24.9123988505       -0.0104240783
     2452.0000000000       24.6516795593       -0.0104777307
     2466.0000000000       24.3974077958       -0.0105224689
     2480.0000000000       24.1493138549       -0.0105586880
     2494.0000000000       23.9071427798       -0.0105867758
     2508.0000000000       23.6706534436       -0.0106071113
     2522.0000000000       23.4396176937       -0.0106200649
     2536.0000000000       23.2138195522       -0.0106259975
     2550.0000000000       22.9930544702       -0.0106252602
     2564.0000000000       22.7771286322       -0.0106181941
     2578.0000000000       22.5658583052       -0.0106051300
     2592.0000000000       22.3590692320       -0.0105863883
     2606.0000000000       22.1565960629       -0.0105622790
     2620.0000000000       21.9582818260       -0.0105331015
     2634.0000000000       21.7639774306       -0.0104991449
     2648.0000000000       21.5735412030       -0.0104606878
     2662.0000000000       21.3868384531       -0.0104179985
     2676.0000000000       21.2037410673       -0.0103713351
     2690.0000000000       21.0241271287       -0.0103209456
     2704.0000000000       20.8478805606       -0.0102670685
     2718.0000000000       20.6748907925       -0.0102099321
     2732.0000000000       20.5050524483       -0.0101497559
     2746.0000000000       20.3382650520       -0.0100867496
     2760.0000000000       20.1744327539       -0.0100211142
     2774.0000000000       20.0134640721       -0.0099530419
     2788.0000000000       19.8552716510       -0.0098827164
     2802.0000000000       19.6997720343       -0.0098103132
     2816.0000000000       19.5468854517       -0.0097359996
     2830.0000000000       19.3965356192       -0.0096599355
     2844.0000000000       19.2486495505       -0.0095822730
     2858.0000000000       19.1031573810       -0.0095031569
     2872.0000000000       18.9599922013       -0.0094227254
     2886.0000000000       18.8190899016       -0.0093411096
     2900.0000000000       18.6803890242       -0.0092584343
     2914.0000000000       18.5438306259       -0.0091748179
     2928.0000000000       18.4093581478       -0.0090903728
     2942.0000000000       18.2769172930       -0.0090052058
     2956.0000000000       18.1464559111       -0.0089194179
     2970.0000000000       18.0179238900       -0.0088331049
     2984.0000000000       17.8912730534       -0.0087463574
     2998.0000000000       17.7664570643       -0.0086592611
     3012.0000000000       17.6434313342       -0.0085718971
     3026.0000000000       17.5221529373       -0.0084843418
     3040.0000000000       17.4025805296       -0.0083966674
     3054.0000000000       17.2846742726       -0.0083089421
     3068.0000000000       17.1683957610       -0.0082212298
     3082.0000000000       17.0537079548       -0.0081335909
     3096.0000000000       16.9405751150       -0.0080460821
     3110.0000000000       16.8289627429       -0.0079587567
     3124.0000000000       16.7188375222       -0.0078716646
     3138.0000000000       16.6101672651       -0.0077848527
     3152.0000000000       16.5029208610       -0.0076983649
     3166.0000000000       16.3970682274       -0.0076122420
     3180.0000000000       16.2925802642       -0.0075265225
     3194.0000000000       16.1894288101       -0.0074412418
     3208.0000000000       16.0875866013       -0.0073564334
     3222.0000000000       15.9870272324       -0.0072721280
     3236.0000000000       15.8877251192       -0.0071883542
     3250.0000000000       15.7896554637       -0.0071051386
     3264.0000000000       15.6927942209       -0.0070225057
     3278.0000000000       15.5971180667       -0.0069404781
     3292.0000000000       15.5026043685       -0.0068590764
     3306.0000000000       15.4092311562       -0.0067783199
     3320.0000000000       15.3169770956       -0.0066982257
     3334.0000000000       15.2258214623       -0.0066188099
     3348.0000000000       15.1357441174       -0.0065400867
     3362.0000000000       15.0467254844       -0.0064620691
     3376.0000000000       14.9587465271       -0.0063847689
     3390.0000000000       14.8717887282       -0.0063081963
     3404.0000000000       14.7858340700       -0.0062323607
     3418.0000000000       14.7008650148       -0.0061572701
     3432.0000000000       14.6168644869       -0.0060829316
     3446.0000000000       14.5338158557       -0.0060093513
     3460.0000000000       14.4517029184       -0.0059365342
     3474.0000000000       14.3705098855       -0.0058644845
     3488.0000000000       14.2902213647       -0.0057932058
     3502.0000000000       14.2108223474       -0.0057227005
     3516.0000000000       14.1322981946       -0.0056529706
     3530.0000000000       14.0546346244       -0.0055840171
     3544.0000000000       13.9778176990       -0.0055158407
     3558.0000000000       13.9018338133       -0.0054484411
     3572.0000000000       13.8266696833       -0.0053818177
     3586.0000000000       13.7523123354       -0.0053159693
     3600.0000000000       13.6787490962       -0.0052508942
     3614.0000000000       13.6059675819       -0.0051865900
     3628.0000000000       13.5339556898       -0.0051230543
     3642.0000000000       13.4627015885       -0.0050602838
     3656.0000000000       13.3921937093       -0.0049982751
     3670.0000000000       13.3224207383       -0.0049370245
     3684.0000000000       13.2533716077       -0.0048765278
     3698.0000000000       13.1850354889       -0.0048167804
     3712.0000000000       13.1174017845       -0.0047577778
     3726.0000000000       13.0504601218       -0.0046995148
     3740.0000000000       12.9842003457       -0.0046419862
     3754.0000000000       12.9186125123       -0.0045851865
     3768.0000000000       12.8536868826       -0.0045291100
     3782.0000000000       12.7894139167       -0.0044737508
     3796.0000000000       12.7257842679       -0.0044191030
     3810.0000000000       12.6627887771       -0.0043651602
     3824.0000000000       12.6004184676       -0.0043119161
     3838.0000000000       12.5386645402       -0.0042593643
     3852.0000000000       12.4775183676       -0.0042074981
     3866.0000000000       12.4169714905       -0.0041563108
     3880.0000000000       12.3570156122       -0.0041057957
     3894.0000000000       12.2976425951       -0.0040559458
     3908.0000000000       12.2388444555       -0.0040067542
     3922.0000000000       12.1806133604       -0.0039582139
     3936.0000000000       12.1229416229       -0.0039103178
     3950.0000000000       12.0658216988       -0.0038630589
     3964.0000000000       12.0092461826       -0.0038164300
     3978.0000000000       11.9532078042       -0.0037704239
     3992.0000000000       11.8976994257       -0.0037250335
     4006.0000000000       11.8427140374       -0.0036802515
     4020.0000000000       11.7882447553       -0.0036360708
     4034.0000000000       11.7342848177       -0.0035924841
     4048.0000000000       11.6808275821       -0.0035494844
     4062.0000000000       11.6278665228       -0.0035070643
     4076.0000000000       11.5753952276       -0.0034652168
     4090.0000000000       11.5234073953       -0.0034239346
     4104.0000000000       11.4718968331       -0.0033832107
     4118.0000000000       11.4208574541       -0.0033430380
     4132.0000000000       11.3702832748       -0.0033034095
     4146.0000000000       11.3201684126       -0.0032643180
     4160.0000000000       11.2705070840       -0.0032257567
     4174.0000000000       11.2212936016       -0.0031877185
     4188.0000000000       11.1725223725       -0.0031501967
     4202.0000000000       11.1241878963       -0.0031131843
     4216.0000000000       11.0762847624       -0.0030766746
     4230.0000000000       11.0288076488       -0.0030406608
     4244.0000000000       10.9817513196       -0.0030051362
     4258.0000000000       10.9351106235       -0.0029700943
     4272.0000000000       10.8888804919       -0.0029355284
     4286.0000000000       10.8430559370       -0.0029014320
     4300.0000000000       10.7976320503       -0.0028677988
     4314.0000000000       10.7526040008       -0.0028346222
     4328.0000000000       10.7079670336       -0.0028018960
     4342.0000000000       10.6637164680       -0.0027696139
     4356.0000000000       10.6198476962       -0.0027377697
     4370.0000000000       10.5763561819       -0.0027063573
     4384.0000000000       10.5332374585       -0.0026753707
     4398.0000000000       10.4904871283       -0.0026448037
     4412.0000000000       10.4481008603       -0.0026146506
     4426.0000000000       10.4060743898       -0.0025849055
     4440.0000000000       10.3644035164       -0.0025555625
     4454.0000000000       10.3230841030       -0.0025266159
     4468.0000000000       10.2821120747       -0.0024980601
     4482.0000000000       10.2414834171       -0.0024698895
     4496.0000000000       10.2011941760       -0.0024420986
     4510.0000000000       10.1612404554       -0.0024146820
     4524.0000000000       10.1216184168       -0.0023876342
     4538.0000000000       10.0823242781       -0.0023609499
     4552.0000000000       10.0433543126       -0.0023346240
     4566.0000000000       10.0047048477       -0.0023086512
