# UV-VIS Spectrum
# X-Axis:  Excitation Energy (nm)
# Y-Axis:  Epsilon
#                  X                   Y               DY/DX
       96.0000000000        0.0000000000        0.0000000000
      114.0000000000        0.0000000000        0.0000000000
      132.0000000000        0.0000000000        0.0000000000
      150.0000000000        0.0000000000        0.0000000000
      168.0000000000        0.0000000000        0.0000000000
      186.0000000000        0.0000000000        0.0000000000
      204.0000000000        0.0000000000        0.0000000000
      222.0000000000        0.0000000000        0.0000000000
      240.0000000000        0.0000000000        0.0000000000
      258.0000000000        0.0000000000        0.0000000000
      276.0000000000        0.0000000000        0.0000000000
      294.0000000000        0.0000000006        0.0000000000
      312.0000000000        0.0000002481        0.0000000000
      330.0000000000        0.0000299557        0.0000000000
      348.0000000000        0.0013453916        0.0000000003
      366.0000000000        0.0278955484        0.0000001134
      384.0000000000        0.3144136855        0.0000131052
      402.0000000000        2.1832685189        0.0005540868
      420.0000000000       10.2919519364        0.0104315512
      438.0000000000       35.5402501877        0.1019352660
      456.0000000000       95.4912377634        0.5832005980
      474.0000000000      209.5001810419        2.1490419318
      492.0000000000      390.2153240332        5.5032555337
      510.0000000000      636.9258433913       10.4102558211
      528.0000000000      934.9731173473       15.2867425050
      546.0000000000     1260.8791651974       18.1581230061
      564.0000000000     1589.5918131149       18.0832586893
      582.0000000000     1900.2665710740       15.6189199142
      600.0000000000     2178.9891034543       12.1321892683
      618.0000000000     2418.7553998407        8.8452727329
      636.0000000000     2617.9004607777        6.3565043505
      654.0000000000     2778.1217219555        4.7015490808
      672.0000000000     2902.7952553356        3.6401552071
      690.0000000000     2995.8350543094        2.8968880199
      708.0000000000     3061.0640942760        2.2709190921
      726.0000000000     3101.9513723136        1.6503709654
      744.0000000000     3121.5609027879        0.9896330593
      762.0000000000     3122.5964982082        0.2845194997
      780.0000000000     3107.4719038063       -0.4449924747
      798.0000000000     3078.3722870454       -1.1663285506
      816.0000000000     3037.2962189606       -1.8433532042
      834.0000000000     2986.0792158690       -2.4438681632
      852.0000000000     2926.4043983807       -2.9449951911
      870.0000000000     2859.8062319527       -3.3357528026
      888.0000000000     2787.6719715040       -3.6168302472
      906.0000000000     2711.2436914608       -3.7982706642
      924.0000000000     2631.6222812728       -3.8961036367
      942.0000000000     2549.7737331547       -3.9288983312
      960.0000000000     2466.5374313228       -3.9149061944
      978.0000000000     2382.6358707119       -3.8701068523
      996.0000000000     2298.6851736228       -3.8071803066
     1014.0000000000     2215.2058380408       -3.7352482392
     1032.0000000000     2132.6332718375       -3.6601518491
     1050.0000000000     2051.3277987398       -3.5850338025
     1068.0000000000     1971.5839408591       -3.5110341326
     1086.0000000000     1893.6388783823       -3.4379672461
     1104.0000000000     1817.6800577405       -3.3649021838
     1122.0000000000     1743.8519676096       -3.2906122561
     1140.0000000000     1672.2621317245       -3.2138906627
     1158.0000000000     1602.9863833183       -3.1337468460
     1176.0000000000     1536.0734921636       -3.0495068443
     1194.0000000000     1471.5492150821       -2.9608428442
     1212.0000000000     1409.4198369332       -2.8677551187
     1230.0000000000     1349.6752633039       -2.7705255922
     1248.0000000000     1292.2917195974       -2.6696577521
     1266.0000000000     1237.2341047047       -2.5658133374
     1284.0000000000     1184.4580413596       -2.4597525815
     1302.0000000000     1133.9116598235       -2.3522819229
     1320.0000000000     1085.5371467849       -2.2442109909
     1338.0000000000     1039.2720872661       -2.1363192286
     1356.0000000000      995.0506238427       -2.0293316064
     1374.0000000000      952.8044545221       -1.9239023653
     1392.0000000000      912.4636881096       -1.8206055009
     1410.0000000000      873.9575737368       -1.7199306592
     1428.0000000000      837.2151193733       -1.6222831939
     1446.0000000000      802.1656125339       -1.5279872730
     1464.0000000000      768.7390549791       -1.4372910949
     1482.0000000000      736.8665219578       -1.3503734416
     1500.0000000000      706.4804554300       -1.2673509632
     1518.0000000000      677.5148997051       -1.1882857287
     1536.0000000000      649.9056870343       -1.1131927024
     1554.0000000000      623.5905798800       -1.0420469061
     1572.0000000000      598.5093758494       -0.9747901074
     1590.0000000000      574.6039806086       -0.9113369409
     1608.0000000000      551.8184534917       -0.8515804123
     1626.0000000000      530.0990299669       -0.7953967761
     1644.0000000000      509.3941246305       -0.7426497984
     1662.0000000000      489.6543179495       -0.6931944359
     1680.0000000000      470.8323295738       -0.6468799723
     1698.0000000000      452.8829806773       -0.6035526590
     1716.0000000000      435.7631474665       -0.5630579102
     1734.0000000000      419.4317077054       -0.5252421011
     1752.0000000000      403.8494818510       -0.4899540201
     1770.0000000000      388.9791701685       -0.4570460169
     1788.0000000000      374.7852869910       -0.4263748915
     1806.0000000000      361.2340931167       -0.3978025605
     1824.0000000000      348.2935271789       -0.3711965359
     1842.0000000000      335.9331366885       -0.3464302467
     1860.0000000000      324.1240093319       -0.3233832299
     1878.0000000000      312.8387050029       -0.3019412142
     1896.0000000000      302.0511889584       -0.2819961173
     1914.0000000000      291.7367664123       -0.2634459735
     1932.0000000000      281.8720188120       -0.2461948066
     1950.0000000000      272.4347419903       -0.2301524609
     1968.0000000000      263.4038863330       -0.2152344004
     1986.0000000000      254.7594990627       -0.2013614856
     2004.0000000000      246.4826687062       -0.1884597343
     2022.0000000000      238.5554717822       -0.1764600738
     2040.0000000000      230.9609217213       -0.1652980878
     2058.0000000000      223.6829200121       -0.1549137629
     2076.0000000000      216.7062095505       -0.1452512378
     2094.0000000000      210.0163301531       -0.1362585570
     2112.0000000000      203.5995761902       -0.1278874317
     2130.0000000000      197.4429562807       -0.1200930088
     2148.0000000000      191.5341549873       -0.1128336487
     2166.0000000000      185.8614964464       -0.1060707135
     2184.0000000000      180.4139098607       -0.0997683652
     2202.0000000000      175.1808967841       -0.0938933745
     2220.0000000000      170.1525001241       -0.0884149398
     2238.0000000000      165.3192747898       -0.0833045173
     2256.0000000000      160.6722599102       -0.0785356606
     2274.0000000000      156.2029525511       -0.0740838707
     2292.0000000000      151.9032828603       -0.0699264549
     2310.0000000000      147.7655905701       -0.0660423964
     2328.0000000000      143.7826027898       -0.0624122306
     2346.0000000000      139.9474130236       -0.0590179313
     2364.0000000000      136.2534613495       -0.0558428047
     2382.0000000000      132.6945156990       -0.0528713896
     2400.0000000000      129.2646541784       -0.0500893664
     2418.0000000000      125.9582483768       -0.0474834714
     2436.0000000000      122.7699476063       -0.0450414175
     2454.0000000000      119.6946640235       -0.0427518214
     2472.0000000000      116.7275585840       -0.0406041354
     2490.0000000000      113.8640277833       -0.0385885846
     2508.0000000000      111.0996911399       -0.0366961086
     2526.0000000000      108.4303793797       -0.0349183080
     2544.0000000000      105.8521232811       -0.0332473941
     2562.0000000000      103.3611431433       -0.0316761437
     2580.0000000000      100.9538388439       -0.0301978557
     2598.0000000000       98.6267804500       -0.0288063126
     2616.0000000000       96.3766993526       -0.0274957435
     2634.0000000000       94.2004798941       -0.0262607912
     2652.0000000000       92.0951514599       -0.0250964810
     2670.0000000000       90.0578810087       -0.0239981917
     2688.0000000000       88.0859660149       -0.0229616301
     2706.0000000000       86.1768278001       -0.0219828056
     2724.0000000000       84.3280052318       -0.0210580084
     2742.0000000000       82.5371487673       -0.0201837886
     2760.0000000000       80.8020148233       -0.0193569365
     2778.0000000000       79.1204604524       -0.0185744654
     2796.0000000000       77.4904383099       -0.0178335951
     2814.0000000000       75.9099918921       -0.0171317366
     2832.0000000000       74.3772510327       -0.0164664781
     2850.0000000000       72.8904276421       -0.0158355725
     2868.0000000000       71.4478116739       -0.0152369248
     2886.0000000000       70.0477673087       -0.0146685816
     2904.0000000000       68.6887293404       -0.0141287206
     2922.0000000000       67.3691997545       -0.0136156415
     2940.0000000000       66.0877444879       -0.0131277567
     2958.0000000000       64.8429903587       -0.0126635838
     2976.0000000000       63.6336221580       -0.0122217380
     2994.0000000000       62.4583798934       -0.0118009249
     3012.0000000000       61.3160561761       -0.0113999344
     3030.0000000000       60.2054937440       -0.0110176348
     3048.0000000000       59.1255831123       -0.0106529672
     3066.0000000000       58.0752603455       -0.0103049404
     3084.0000000000       57.0535049435       -0.0099726262
     3102.0000000000       56.0593378356       -0.0096551553
     3120.0000000000       55.0918194765       -0.0093517129
     3138.0000000000       54.1500480389       -0.0090615352
     3156.0000000000       53.2331576970       -0.0087839059
     3174.0000000000       52.3403169963       -0.0085181527
     3192.0000000000       51.4707273050       -0.0082636449
     3210.0000000000       50.6236213424       -0.0080197900
     3228.0000000000       49.7982617803       -0.0077860315
     3246.0000000000       48.9939399134       -0.0075618465
     3264.0000000000       48.2099743950       -0.0073467433
     3282.0000000000       47.4457100346       -0.0071402594
     3300.0000000000       46.7005166542       -0.0069419597
     3318.0000000000       45.9737879998       -0.0067514347
     3336.0000000000       45.2649407058       -0.0065682986
     3354.0000000000       44.5734133086       -0.0063921881
     3372.0000000000       43.8986653083       -0.0062227606
     3390.0000000000       43.2401762742       -0.0060596933
     3408.0000000000       42.5974449934       -0.0059026816
     3426.0000000000       41.9699886589       -0.0057514381
     3444.0000000000       41.3573420970       -0.0056056913
     3462.0000000000       40.7590570292       -0.0054651852
     3480.0000000000       40.1747013703       -0.0053296775
     3498.0000000000       39.6038585576       -0.0051989394
     3516.0000000000       39.0461269118       -0.0050727546
     3534.0000000000       38.5011190272       -0.0049509182
     3552.0000000000       37.9684611896       -0.0048332366
     3570.0000000000       37.4477928207       -0.0047195263
     3588.0000000000       36.9387659480       -0.0046096137
     3606.0000000000       36.4410446985       -0.0045033340
     3624.0000000000       35.9543048146       -0.0044005313
     3642.0000000000       35.4782331926       -0.0043010576
     3660.0000000000       35.0125274410       -0.0042047725
     3678.0000000000       34.5568954586       -0.0041115427
     3696.0000000000       34.1110550315       -0.0040212418
     3714.0000000000       33.6747334472       -0.0039337496
     3732.0000000000       33.2476671262       -0.0038489520
     3750.0000000000       32.8296012692       -0.0037667403
     3768.0000000000       32.4202895196       -0.0036870114
     3786.0000000000       32.0194936410       -0.0036096671
     3804.0000000000       31.6269832078       -0.0035346139
     3822.0000000000       31.2425353098       -0.0034617629
     3840.0000000000       30.8659342690       -0.0033910293
     3858.0000000000       30.4969713681       -0.0033223324
     3876.0000000000       30.1354445910       -0.0032555951
     3894.0000000000       29.7811583738       -0.0031907441
     3912.0000000000       29.4339233666       -0.0031277094
     3930.0000000000       29.0935562047       -0.0030664241
     3948.0000000000       28.7598792894       -0.0030068245
     3966.0000000000       28.4327205785       -0.0029488497
     3984.0000000000       28.1119133842       -0.0028924414
     4002.0000000000       27.7972961806       -0.0028375441
     4020.0000000000       27.4887124175       -0.0027841046
     4038.0000000000       27.1860103435       -0.0027320719
     4056.0000000000       26.8890428347       -0.0026813975
     4074.0000000000       26.5976672311       -0.0026320348
     4092.0000000000       26.3117451792       -0.0025839393
     4110.0000000000       26.0311424812       -0.0025370681
     4128.0000000000       25.7557289497       -0.0024913804
     4146.0000000000       25.4853782688       -0.0024468370
     4164.0000000000       25.2199678597       -0.0024034003
     4182.0000000000       24.9593787525       -0.0023610343
     4200.0000000000       24.7034954623       -0.0023197043
     4218.0000000000       24.4522058707       -0.0022793771
     4236.0000000000       24.2054011113       -0.0022400209
     4254.0000000000       23.9629754598       -0.0022016052
     4272.0000000000       23.7248262287       -0.0021641004
     4290.0000000000       23.4908536652       -0.0021274783
     4308.0000000000       23.2609608538       -0.0020917118
     4326.0000000000       23.0350536220       -0.0020567748
     4344.0000000000       22.8130404498       -0.0020226421
     4362.0000000000       22.5948323825       -0.0019892895
     4380.0000000000       22.3803429469       -0.0019566940
     4398.0000000000       22.1694880703       -0.0019248329
     4416.0000000000       21.9621860029       -0.0018936848
     4434.0000000000       21.7583572427       -0.0018632289
     4452.0000000000       21.5579244632       -0.0018334452
     4470.0000000000       21.3608124440       -0.0018043144
     4488.0000000000       21.1669480038       -0.0017758178
     4506.0000000000       20.9762599354       -0.0017479377
     4524.0000000000       20.7886789437       -0.0017206566
     4542.0000000000       20.6041375858       -0.0016939578
     4560.0000000000       20.4225702125       -0.0016678253
     4578.0000000000       20.2439129130       -0.0016422435
     4596.0000000000       20.0681034607       -0.0016171974
     4614.0000000000       19.8950812613       -0.0015926725
     4632.0000000000       19.7247873026       -0.0015686547
     4650.0000000000       19.5571641062       -0.0015451305
     4668.0000000000       19.3921556806       -0.0015220869
     4686.0000000000       19.2297074763       -0.0014995111
     4704.0000000000       19.0697663421       -0.0014773909
     4722.0000000000       18.9122804830       -0.0014557144
     4740.0000000000       18.7571994198       -0.0014344703
     4758.0000000000       18.6044739498       -0.0014136473
     4776.0000000000       18.4540561088       -0.0013932349
     4794.0000000000       18.3058991344       -0.0013732225
     4812.0000000000       18.1599574311       -0.0013536001
     4830.0000000000       18.0161865356       -0.0013343579
     4848.0000000000       17.8745430839       -0.0013154866
     4866.0000000000       17.7349847795       -0.0012969769
     4884.0000000000       17.5974703625       -0.0012788199
     4902.0000000000       17.4619595794       -0.0012610072
     4920.0000000000       17.3284131546       -0.0012435302
     4938.0000000000       17.1967927623       -0.0012263810
     4956.0000000000       17.0670609995       -0.0012095516
     4974.0000000000       16.9391813598       -0.0011930345
     4992.0000000000       16.8131182081       -0.0011768222
     5010.0000000000       16.6888367563       -0.0011609076
     5028.0000000000       16.5663030392       -0.0011452838
     5046.0000000000       16.4454838920       -0.0011299439
     5064.0000000000       16.3263469278       -0.0011148813
     5082.0000000000       16.2088605161       -0.0011000898
     5100.0000000000       16.0929937623       -0.0010855630
     5118.0000000000       15.9787164869       -0.0010712951
     5136.0000000000       15.8659992067       -0.0010572800
     5154.0000000000       15.7548131152       -0.0010435121
     5172.0000000000       15.6451300648       -0.0010299859
     5190.0000000000       15.5369225487       -0.0010166961
     5208.0000000000       15.4301636837       -0.0010036373
     5226.0000000000       15.3248271936       -0.0009908044
     5244.0000000000       15.2208873931       -0.0009781926
     5262.0000000000       15.1183191720       -0.0009657970
     5280.0000000000       15.0170979797       -0.0009536129
     5298.0000000000       14.9171998112       -0.0009416357
     5316.0000000000       14.8186011921       -0.0009298610
     5334.0000000000       14.7212791648       -0.0009182845
     5352.0000000000       14.6252112755       -0.0009069020
     5370.0000000000       14.5303755607       -0.0008957093
     5388.0000000000       14.4367505348       -0.0008847024
     5406.0000000000       14.3443151775       -0.0008738775
     5424.0000000000       14.2530489222       -0.0008632308
     5442.0000000000       14.1629316442       -0.0008527586
     5460.0000000000       14.0739436496       -0.0008424572
     5478.0000000000       13.9860656642       -0.0008323231
     5496.0000000000       13.8992788231       -0.0008223530
     5514.0000000000       13.8135646605       -0.0008125435
     5532.0000000000       13.7289050992       -0.0008028913
     5550.0000000000       13.6452824415       -0.0007933932
     5568.0000000000       13.5626793594       -0.0007840462
     5586.0000000000       13.4810788855       -0.0007748473
     5604.0000000000       13.4004644045       -0.0007657934
     5622.0000000000       13.3208196436       -0.0007568818
     5640.0000000000       13.2421286654       -0.0007481095
     5658.0000000000       13.1643758584       -0.0007394739
     5676.0000000000       13.0875459303       -0.0007309723
     5694.0000000000       13.0116238991       -0.0007226021
     5712.0000000000       12.9365950868       -0.0007143607
     5730.0000000000       12.8624451110       -0.0007062457
     5748.0000000000       12.7891598787       -0.0006982546
     5766.0000000000       12.7167255787       -0.0006903850
     5784.0000000000       12.6451286754       -0.0006826347
     5802.0000000000       12.5743559020       -0.0006750013
     5820.0000000000       12.5043942544       -0.0006674826
     5838.0000000000       12.4352309848       -0.0006600766
