# UV-VIS Spectrum
# X-Axis:  Excitation Energy (nm)
# Y-Axis:  Epsilon
#                  X                   Y               DY/DX
      104.0000000000        0.0000000000        0.0000000000
      120.0000000000        0.0000000000        0.0000000000
      136.0000000000        0.0000000000        0.0000000000
      152.0000000000        0.0000000000        0.0000000000
      168.0000000000        0.0000000000        0.0000000000
      184.0000000000        0.0000000000        0.0000000000
      200.0000000000        0.0000000000        0.0000000000
      216.0000000000        0.0000000000        0.0000000000
      232.0000000000        0.0000000000        0.0000000000
      248.0000000000        0.0000000006        0.0000000000
      264.0000000000        0.0000011299        0.0000000000
      280.0000000000        0.0003462460        0.0000000000
      296.0000000000        0.0274280115        0.0000000889
      312.0000000000        0.7769727866        0.0000586829
      328.0000000000       10.0095490224        0.0072550819
      344.0000000000       70.2027405575        0.2447423728
      360.0000000000      307.0580396636        3.0133077218
      376.0000000000      928.9047522915       16.9990040557
      392.0000000000     2104.9493209046       52.3854596012
      408.0000000000     3802.3425797969      100.2778423377
      424.0000000000     5750.9372748135      129.5684654986
      440.0000000000     7573.7757104283      117.4121956816
      456.0000000000     8961.5215112096       72.4942942187
      472.0000000000     9768.2027909211       21.7553613791
      488.0000000000    10005.7428299702      -15.7428026973
      504.0000000000     9784.6059130778      -37.0714614436
      520.0000000000     9251.1898476346      -47.2924778635
      536.0000000000     8545.6138158976      -51.0303852806
      552.0000000000     7781.2544675630      -50.2936542517
      568.0000000000     7038.9189883077      -45.7746057985
      584.0000000000     6368.7215805735      -38.2013181862
      600.0000000000     5795.3135219927      -28.7482027553
      616.0000000000     5324.1894533263      -18.8488558460
      632.0000000000     4947.8998736337       -9.8590476600
      648.0000000000     4651.5216150488       -2.7879513483
      664.0000000000     4417.0345714750        1.8376958355
      680.0000000000     4226.4803101331        3.9757968311
      696.0000000000     4063.9611540980        3.9683237224
      712.0000000000     3916.6627666862        2.3866648001
      728.0000000000     3775.1425418840       -0.1267866498
      744.0000000000     3633.1298209275       -2.9839050874
      760.0000000000     3487.0510159929       -5.7262905241
      776.0000000000     3335.4426545946       -8.0522490340
      792.0000000000     3178.3631497134       -9.8075008404
      808.0000000000     3016.8687476752      -10.9551626483
      824.0000000000     2852.5844309470      -11.5386515935
      840.0000000000     2687.3768619828      -11.6468775589
      856.0000000000     2523.1221510426      -11.3866224543
      872.0000000000     2361.5540175931      -10.8635245389
      888.0000000000     2204.1755221407      -10.1709254418
      904.0000000000     2052.2180864366       -9.3848330588
      920.0000000000     1906.6335965483       -8.5630495900
      936.0000000000     1768.1080544336       -7.7467557050
      952.0000000000     1637.0879366010       -6.9632605472
      968.0000000000     1513.8128273914       -6.2290566995
      984.0000000000     1398.3498908421       -5.5526773097
     1000.0000000000     1290.6273079012       -4.9371136892
     1016.0000000000     1190.4649718322       -4.3817214859
     1032.0000000000     1097.6015664226       -3.8836409370
     1048.0000000000     1011.7177175748       -3.4388032036
     1064.0000000000      932.4552729902       -3.0426091127
     1080.0000000000      859.4329816194       -2.6903629103
     1096.0000000000      792.2589583281       -2.3775314575
     1112.0000000000      730.5403636535       -2.0998845627
     1128.0000000000      673.8907286456       -1.8535580650
     1144.0000000000      621.9353285143       -1.6350693150
     1160.0000000000      574.3149685109       -1.4413052817
     1176.0000000000      530.6884993810       -1.2694964954
     1192.0000000000      490.7343330593       -1.1171850565
     1208.0000000000      454.1511851295       -0.9821915396
     1224.0000000000      420.6582306055       -0.8625834122
     1240.0000000000      389.9948245126       -0.7566461964
     1256.0000000000      361.9199086721       -0.6628577875
     1272.0000000000      336.2112007696       -0.5798658934
     1288.0000000000      312.6642407904       -0.5064683369
     1304.0000000000      291.0913527154       -0.4415958819
     1320.0000000000      271.3205654535       -0.3842972337
     1336.0000000000      253.1945258380       -0.3337258946
     1352.0000000000      236.5694276694       -0.2891285966
     1368.0000000000      221.3139738375       -0.2498350816
     1384.0000000000      207.3083831511       -0.2152490374
     1400.0000000000      194.4434493410       -0.1848400356
     1416.0000000000      182.6196565430       -0.1581363460
     1432.0000000000      171.7463531907       -0.1347185215
     1448.0000000000      161.7409845061       -0.1142136691
     1464.0000000000      152.5283825091       -0.0962903304
     1480.0000000000      144.0401115907       -0.0806539104
     1496.0000000000      136.2138671001       -0.0670425964
     1512.0000000000      128.9929240271       -0.0552237190
     1528.0000000000      122.3256326577       -0.0449905089
     1544.0000000000      116.1649580028       -0.0361592098
     1560.0000000000      110.4680598071       -0.0285665108
     1576.0000000000      105.1959100236       -0.0220672644
     1592.0000000000      100.3129447554       -0.0165324598
     1608.0000000000       95.7867478159       -0.0118474244
     1624.0000000000       91.5877632213       -0.0079102283
     1640.0000000000       87.6890341082       -0.0046302691
     1656.0000000000       84.0659657406       -0.0019270174
     1672.0000000000       80.6961104487        0.0002710959
     1688.0000000000       77.5589725125        0.0020276661
     1704.0000000000       74.6358311623        0.0033991898
     1720.0000000000       71.9095800263        0.0044358416
     1736.0000000000       69.3645814972        0.0051821632
     1752.0000000000       66.9865346255        0.0056776759
     1768.0000000000       64.7623552729        0.0059574246
     1784.0000000000       62.6800673733        0.0060524619
     1800.0000000000       60.7287042548        0.0059902787
     1816.0000000000       58.8982190760        0.0057951878
     1832.0000000000       57.1794035141        0.0054886658
     1848.0000000000       55.5638139281        0.0050896579
     1864.0000000000       54.0437042905        0.0046148501
     1880.0000000000       52.6119652500        0.0040789123
     1896.0000000000       51.2620687476        0.0034947152
     1912.0000000000       49.9880176634        0.0028735250
     1928.0000000000       48.7843000235        0.0022251767
     1944.0000000000       47.6458473374        0.0015582299
     1960.0000000000       46.5679966818        0.0008801080
     1976.0000000000       45.5464561804        0.0001972229
     1992.0000000000       44.5772735645       -0.0004849130
     2008.0000000000       43.6568075285       -0.0011615869
     2024.0000000000       42.7817016212       -0.0018287958
     2040.0000000000       41.9488604409       -0.0024831657
     2056.0000000000       41.1554279209       -0.0031218799
     2072.0000000000       40.3987675147       -0.0037426141
     2088.0000000000       39.6764441081       -0.0043434784
     2104.0000000000       38.9862075002       -0.0049229658
     2120.0000000000       38.3259773118       -0.0054799057
     2136.0000000000       37.6938291923       -0.0060134219
     2152.0000000000       37.0879822078       -0.0065228961
     2168.0000000000       36.5067873056       -0.0070079342
     2184.0000000000       35.9487167583       -0.0074683369
     2200.0000000000       35.4123544998       -0.0079040730
     2216.0000000000       34.8963872764       -0.0083152563
     2232.0000000000       34.3995965384       -0.0087021240
     2248.0000000000       33.9208510093       -0.0090650186
     2264.0000000000       33.4590998720       -0.0094043706
     2280.0000000000       33.0133665192       -0.0097206848
     2296.0000000000       32.5827428177       -0.0100145263
     2312.0000000000       32.1663838442       -0.0102865097
     2328.0000000000       31.7635030500       -0.0105372886
     2344.0000000000       31.3733678187       -0.0107675468
     2360.0000000000       30.9952953841       -0.0109779905
     2376.0000000000       30.6286490759       -0.0111693415
     2392.0000000000       30.2728348672       -0.0113423311
     2408.0000000000       29.9272981974       -0.0114976951
     2424.0000000000       29.5915210476       -0.0116361691
     2440.0000000000       29.2650192472       -0.0117584850
     2456.0000000000       28.9473399929       -0.0118653674
     2472.0000000000       28.6380595622       -0.0119575309
     2488.0000000000       28.3367812049       -0.0120356778
     2504.0000000000       28.0431331996       -0.0121004961
     2520.0000000000       27.7567670588       -0.0121526579
     2536.0000000000       27.4773558737       -0.0121928179
     2552.0000000000       27.2045927852       -0.0122216128
     2568.0000000000       26.9381895712       -0.0122396600
     2584.0000000000       26.6778753424       -0.0122475574
     2600.0000000000       26.4233953349       -0.0122458826
     2616.0000000000       26.1745097956       -0.0122351932
     2632.0000000000       25.9309929491       -0.0122160261
     2648.0000000000       25.6926320436       -0.0121888978
     2664.0000000000       25.4592264658       -0.0121543044
     2680.0000000000       25.2305869224       -0.0121127220
     2696.0000000000       25.0065346813       -0.0120646068
     2712.0000000000       24.7869008679       -0.0120103953
     2728.0000000000       24.5715258138       -0.0119505051
     2744.0000000000       24.3602584511       -0.0118853348
     2760.0000000000       24.1529557518       -0.0118152649
     2776.0000000000       23.9494822068       -0.0117406580
     2792.0000000000       23.7497093417       -0.0116618596
     2808.0000000000       23.5535152681       -0.0115791984
     2824.0000000000       23.3607842653       -0.0114929868
     2840.0000000000       23.1714063927       -0.0114035216
     2856.0000000000       22.9852771282       -0.0113110846
     2872.0000000000       22.8022970328       -0.0112159430
     2888.0000000000       22.6223714376       -0.0111183498
     2904.0000000000       22.4454101529       -0.0110185449
     2920.0000000000       22.2713271971       -0.0109167550
     2936.0000000000       22.1000405439       -0.0108131945
     2952.0000000000       21.9314718869       -0.0107080658
     2968.0000000000       21.7655464202       -0.0106015602
     2984.0000000000       21.6021926334       -0.0104938578
     3000.0000000000       21.4413421204       -0.0103851285
     3016.0000000000       21.2829294007       -0.0102755321
     3032.0000000000       21.1268917533       -0.0101652192
     3048.0000000000       20.9731690605       -0.0100543310
     3064.0000000000       20.8217036624       -0.0099430003
     3080.0000000000       20.6724402206       -0.0098313516
     3096.0000000000       20.5253255913       -0.0097195016
     3112.0000000000       20.3803087057       -0.0096075597
     3128.0000000000       20.2373404586       -0.0094956280
     3144.0000000000       20.0963736037       -0.0093838020
     3160.0000000000       19.9573626559       -0.0092721707
     3176.0000000000       19.8202637994       -0.0091608174
     3192.0000000000       19.6850348015       -0.0090498191
     3208.0000000000       19.5516349320       -0.0089392479
     3224.0000000000       19.4200248870       -0.0088291703
     3240.0000000000       19.2901667183       -0.0087196482
     3256.0000000000       19.1620237659       -0.0086107387
     3272.0000000000       19.0355605957       -0.0085024946
     3288.0000000000       18.9107429397       -0.0083949646
     3304.0000000000       18.7875376412       -0.0082881934
     3320.0000000000       18.6659126017       -0.0081822219
     3336.0000000000       18.5458367322       -0.0080770877
     3352.0000000000       18.4272799064       -0.0079728251
     3368.0000000000       18.3102129171       -0.0078694651
     3384.0000000000       18.1946074351       -0.0077670360
     3400.0000000000       18.0804359701       -0.0076655630
     3416.0000000000       17.9676718340       -0.0075650692
     3432.0000000000       17.8562891062       -0.0074655747
     3448.0000000000       17.7462626010       -0.0073670977
     3464.0000000000       17.6375678366       -0.0072696541
     3480.0000000000       17.5301810058       -0.0071732577
     3496.0000000000       17.4240789483       -0.0070779204
     3512.0000000000       17.3192391243       -0.0069836524
     3528.0000000000       17.2156395904       -0.0068904621
     3544.0000000000       17.1132589750       -0.0067983565
     3560.0000000000       17.0120764569       -0.0067073410
     3576.0000000000       16.9120717440       -0.0066174195
     3592.0000000000       16.8132250529       -0.0065285949
     3608.0000000000       16.7155170901       -0.0064408687
     3624.0000000000       16.6189290339       -0.0063542413
     3640.0000000000       16.5234425174       -0.0062687120
     3656.0000000000       16.4290396118       -0.0061842793
     3672.0000000000       16.3357028111       -0.0061009406
     3688.0000000000       16.2434150172       -0.0060186927
     3704.0000000000       16.1521595260       -0.0059375313
     3720.0000000000       16.0619200138       -0.0058574516
     3736.0000000000       15.9726805246       -0.0057784481
     3752.0000000000       15.8844254577       -0.0057005147
     3768.0000000000       15.7971395567       -0.0056236446
     3784.0000000000       15.7108078973       -0.0055478306
     3800.0000000000       15.6254158779       -0.0054730651
     3816.0000000000       15.5409492086       -0.0053993397
     3832.0000000000       15.4573939017       -0.0053266461
     3848.0000000000       15.3747362629       -0.0052549753
     3864.0000000000       15.2929628816       -0.0051843180
     3880.0000000000       15.2120606232       -0.0051146647
     3896.0000000000       15.1320166204       -0.0050460056
     3912.0000000000       15.0528182657       -0.0049783306
     3928.0000000000       14.9744532038       -0.0049116295
     3944.0000000000       14.8969093243       -0.0048458918
     3960.0000000000       14.8201747552       -0.0047811068
     3976.0000000000       14.7442378559       -0.0047172639
     3992.0000000000       14.6690872109       -0.0046543521
     4008.0000000000       14.5947116239       -0.0045923605
     4024.0000000000       14.5211001117       -0.0045312778
     4040.0000000000       14.4482418986       -0.0044710931
     4056.0000000000       14.3761264111       -0.0044117950
     4072.0000000000       14.3047432724       -0.0043533724
     4088.0000000000       14.2340822975       -0.0042958139
     4104.0000000000       14.1641334884       -0.0042391083
     4120.0000000000       14.0948870293       -0.0041832443
     4136.0000000000       14.0263332820       -0.0041282106
     4152.0000000000       13.9584627816       -0.0040739960
     4168.0000000000       13.8912662325       -0.0040205892
     4184.0000000000       13.8247345038       -0.0039679790
     4200.0000000000       13.7588586260       -0.0039161544
     4216.0000000000       13.6936297867       -0.0038651042
     4232.0000000000       13.6290393269       -0.0038148173
     4248.0000000000       13.5650787380       -0.0037652829
     4264.0000000000       13.5017396576       -0.0037164900
     4280.0000000000       13.4390138668       -0.0036684279
     4296.0000000000       13.3768932866       -0.0036210858
     4312.0000000000       13.3153699746       -0.0035744531
     4328.0000000000       13.2544361227       -0.0035285193
     4344.0000000000       13.1940840532       -0.0034832738
     4360.0000000000       13.1343062166       -0.0034387064
     4376.0000000000       13.0750951888       -0.0033948068
     4392.0000000000       13.0164436680       -0.0033515649
     4408.0000000000       12.9583444723       -0.0033089707
     4424.0000000000       12.9007905375       -0.0032670142
     4440.0000000000       12.8437749140       -0.0032256856
     4456.0000000000       12.7872907649       -0.0031849753
     4472.0000000000       12.7313313635       -0.0031448736
     4488.0000000000       12.6758900910       -0.0031053712
     4504.0000000000       12.6209604342       -0.0030664586
     4520.0000000000       12.5665359838       -0.0030281266
     4536.0000000000       12.5126104317       -0.0029903662
     4552.0000000000       12.4591775695       -0.0029531683
     4568.0000000000       12.4062312862       -0.0029165241
     4584.0000000000       12.3537655663       -0.0028804248
     4600.0000000000       12.3017744881       -0.0028448618
     4616.0000000000       12.2502522218       -0.0028098265
     4632.0000000000       12.1991930276       -0.0027753107
     4648.0000000000       12.1485912541       -0.0027413060
     4664.0000000000       12.0984413365       -0.0027078043
     4680.0000000000       12.0487377950       -0.0026747975
     4696.0000000000       11.9994752334       -0.0026422778
     4712.0000000000       11.9506483371       -0.0026102373
     4728.0000000000       11.9022518718       -0.0025786683
     4744.0000000000       11.8542806821       -0.0025475633
     4760.0000000000       11.8067296900       -0.0025169148
     4776.0000000000       11.7595938931       -0.0024867156
     4792.0000000000       11.7128683638       -0.0024569582
     4808.0000000000       11.6665482475       -0.0024276358
     4824.0000000000       11.6206287615       -0.0023987412
     4840.0000000000       11.5751051936       -0.0023702675
     4856.0000000000       11.5299729009       -0.0023422080
     4872.0000000000       11.4852273083       -0.0023145560
     4888.0000000000       11.4408639077       -0.0022873050
     4904.0000000000       11.3968782566       -0.0022604484
     4920.0000000000       11.3532659767       -0.0022339798
     4936.0000000000       11.3100227534       -0.0022078932
     4952.0000000000       11.2671443339       -0.0021821821
     4968.0000000000       11.2246265269       -0.0021568408
     4984.0000000000       11.1824652007       -0.0021318630
