# UV-VIS Spectrum
# X-Axis:  Excitation Energy (nm)
# Y-Axis:  Epsilon
#                  X                   Y               DY/DX
      104.0000000000        0.0000000000        0.0000000000
      120.0000000000        0.0000000000        0.0000000000
      136.0000000000        0.0000000000        0.0000000000
      152.0000000000        0.0000000000        0.0000000000
      168.0000000000        0.0000000000        0.0000000000
      184.0000000000        0.0000000000        0.0000000000
      200.0000000000        0.0000000000        0.0000000000
      216.0000000000        0.0000000000        0.0000000000
      232.0000000000        0.0000000000        0.0000000000
      248.0000000000        0.0000000005        0.0000000000
      264.0000000000        0.0000008879        0.0000000000
      280.0000000000        0.0002757459        0.0000000000
      296.0000000000        0.0222079231        0.0000000685
      312.0000000000        0.6411747766        0.0000454650
      328.0000000000        8.4319048382        0.0056867249
      344.0000000000       60.4039332458        0.1955529692
      360.0000000000      269.7745875148        2.4749534582
      376.0000000000      832.5062535003       14.4620617757
      392.0000000000     1921.5875716046       46.3913959244
      408.0000000000     3529.6408865954       92.5845307218
      424.0000000000     5418.7766373522      124.7693098359
      440.0000000000     7231.0584888783      118.3610790998
      456.0000000000     8655.8589643021       77.8366072469
      472.0000000000     9532.3802229437       28.0840827017
      488.0000000000     9854.6765842484      -10.5605096646
      504.0000000000     9718.8731062562      -33.0462832088
      520.0000000000     9262.2261745976      -43.7081204499
      536.0000000000     8620.0012553602      -47.7083450889
      552.0000000000     7903.6235373526      -47.6323796099
      568.0000000000     7193.8264645951      -44.1810276883
      584.0000000000     6541.8884718743      -37.7388687248
      600.0000000000     5974.4234481205      -29.1867772339
      616.0000000000     5499.3284924669      -19.8784097411
      632.0000000000     5111.6903940663      -11.2381373418
      648.0000000000     4799.0134634279       -4.3699306853
      664.0000000000     4545.4281064782        0.1471663541
      680.0000000000     4334.7544607347        2.2640630052
      696.0000000000     4152.4681149396        2.3328988200
      712.0000000000     3986.7349252422        0.9264070188
      728.0000000000     3828.7412378668       -1.3306167549
      744.0000000000     3672.5518896217       -3.8827406357
      760.0000000000     3514.6985616816       -6.3093150989
      776.0000000000     3353.6541234713       -8.3419725124
      792.0000000000     3189.2991410087       -9.8497155039
      808.0000000000     3022.4435909243      -10.8074630447
      824.0000000000     2854.4338089773      -11.2604686131
      840.0000000000     2686.8521493031      -11.2924159754
      856.0000000000     2521.3032153532      -11.0008684682
      872.0000000000     2359.2736421404      -10.4807936182
      888.0000000000     2202.0500914881       -9.8151724742
      904.0000000000     2050.6805710133       -9.0709807064
      920.0000000000     1905.9660791677       -8.2987545769
      936.0000000000     1768.4720269149       -7.5342241585
      952.0000000000     1638.5513557474       -6.8008892012
      968.0000000000     1516.3734778799       -6.1127982924
      984.0000000000     1401.9549897013       -5.4771067920
     1000.0000000000     1295.1895358035       -4.8962159583
     1016.0000000000     1195.8752632360       -4.3694418288
     1032.0000000000     1103.7390622710       -3.8942452136
     1048.0000000000     1018.4573042088       -3.4670926143
     1064.0000000000      939.6731174279       -3.0840284755
     1080.0000000000      867.0104399909       -2.7410342690
     1096.0000000000      800.0851907713       -2.4342379356
     1112.0000000000      738.5139419838       -2.1600232857
     1128.0000000000      681.9204769018       -1.9150759133
     1144.0000000000      629.9405935814       -1.6963912351
     1160.0000000000      582.2254797748       -1.5012617546
     1176.0000000000      538.4439432796       -1.3272544110
     1192.0000000000      498.2837404466       -1.1721845094
     1208.0000000000      461.4522062347       -1.0340898305
     1224.0000000000      427.6763535513       -0.9112066820
     1240.0000000000      396.7025782934       -0.8019485581
     1256.0000000000      368.2960796142       -0.7048874683
     1272.0000000000      342.2400822722       -0.6187377030
     1288.0000000000      318.3349290922       -0.5423416902
     1304.0000000000      296.3970961281       -0.4746575886
     1320.0000000000      276.2581705938       -0.4147483008
     1336.0000000000      257.7638215739       -0.3617716467
     1352.0000000000      240.7727855278       -0.3149714955
     1368.0000000000      225.1558823011       -0.2736697055
     1384.0000000000      210.7950724406       -0.2372587597
     1400.0000000000      197.5825628138       -0.2051950190
     1416.0000000000      185.4199646315       -0.1769925312
     1432.0000000000      174.2175057921       -0.1522173548
     1448.0000000000      163.8932978435       -0.1304823588
     1464.0000000000      154.3726566860       -0.1114424700
     1480.0000000000      145.5874753079       -0.0947903405
     1496.0000000000      137.4756462834       -0.0802524075
     1512.0000000000      129.9805314009       -0.0675853226
     1528.0000000000      123.0504755893       -0.0565727227
     1544.0000000000      116.6383622156       -0.0470223193
     1560.0000000000      110.7012068251       -0.0387632803
     1576.0000000000      105.1997864529       -0.0316438817
     1592.0000000000      100.0983017302       -0.0255294039
     1608.0000000000       95.3640691427       -0.0203002522
     1624.0000000000       90.9672409365       -0.0158502796
     1640.0000000000       86.8805503287       -0.0120852919
     1656.0000000000       83.0790798339       -0.0089217172
     1672.0000000000       79.5400506789       -0.0062854228
     1688.0000000000       76.2426314310       -0.0041106635
     1704.0000000000       73.1677641151       -0.0023391475
     1720.0000000000       70.2980062358       -0.0009192070
     1736.0000000000       67.6173872545        0.0001949381
     1752.0000000000       65.1112781954        0.0010438336
     1768.0000000000       62.7662731726        0.0016633720
     1784.0000000000       60.5700817357        0.0020853071
     1800.0000000000       58.5114310325        0.0023377118
     1816.0000000000       56.5799768770        0.0024453851
     1832.0000000000       54.7662228964        0.0024302131
     1848.0000000000       53.0614470052        0.0023114904
     1864.0000000000       51.4576345259        0.0021062059
     1880.0000000000       49.9474173386        0.0018292971
     1896.0000000000       48.5240185001        0.0014938771
     1912.0000000000       47.1812018244        0.0011114354
     1928.0000000000       45.9132259669        0.0006920185
     1944.0000000000       44.7148025941        0.0002443897
     1960.0000000000       43.5810582643       -0.0002238277
     1976.0000000000       42.5074996755       -0.0007060233
     1992.0000000000       41.4899819735       -0.0011964853
     2008.0000000000       40.5246798381       -0.0016902993
     2024.0000000000       39.6080610963       -0.0021832574
     2040.0000000000       38.7368626294       -0.0026717775
     2056.0000000000       37.9080683692       -0.0031528308
     2072.0000000000       37.1188891917       -0.0036238775
     2088.0000000000       36.3667445388       -0.0040828089
     2104.0000000000       35.6492456123       -0.0045278960
     2120.0000000000       34.9641800001       -0.0049577438
     2136.0000000000       34.3094976052       -0.0053712502
     2152.0000000000       33.6832977645       -0.0057675695
     2168.0000000000       33.0838174493       -0.0061460798
     2184.0000000000       32.5094204542       -0.0065063541
     2200.0000000000       31.9585874864       -0.0068481342
     2216.0000000000       31.4299070774       -0.0071713081
     2232.0000000000       30.9220672449       -0.0074758893
     2248.0000000000       30.4338478403       -0.0077619988
     2264.0000000000       29.9641135220       -0.0080298489
     2280.0000000000       29.5118073009       -0.0082797289
     2296.0000000000       29.0759446101       -0.0085119929
     2312.0000000000       28.6556078513       -0.0087270481
     2328.0000000000       28.2499413813       -0.0089253453
     2344.0000000000       27.8581468972       -0.0091073702
     2360.0000000000       27.4794791903       -0.0092736358
     2376.0000000000       27.1132422357       -0.0094246759
     2392.0000000000       26.7587855894       -0.0095610388
     2408.0000000000       26.4155010695       -0.0096832830
     2424.0000000000       26.0828196947       -0.0097919722
     2440.0000000000       25.7602088620       -0.0098876716
     2456.0000000000       25.4471697423       -0.0099709450
     2472.0000000000       25.1432348757       -0.0100423517
     2488.0000000000       24.8479659518       -0.0101024440
     2504.0000000000       24.5609517588       -0.0101517656
     2520.0000000000       24.2818062884       -0.0101908496
     2536.0000000000       24.0101669828       -0.0102202174
     2552.0000000000       23.7456931149       -0.0102403773
     2568.0000000000       23.4880642878       -0.0102518237
     2584.0000000000       23.2369790477       -0.0102550365
     2600.0000000000       22.9921535977       -0.0102504804
     2616.0000000000       22.7533206075       -0.0102386048
     2632.0000000000       22.5202281103       -0.0102198431
     2648.0000000000       22.2926384789       -0.0101946131
     2664.0000000000       22.0703274778       -0.0101633166
     2680.0000000000       21.8530833824       -0.0101263398
     2696.0000000000       21.6407061621       -0.0100840528
     2712.0000000000       21.4330067214       -0.0100368107
     2728.0000000000       21.2298061955       -0.0099849529
     2744.0000000000       21.0309352951       -0.0099288043
     2760.0000000000       20.8362336975       -0.0098686748
     2776.0000000000       20.6455494807       -0.0098048602
     2792.0000000000       20.4587385963       -0.0097376423
     2808.0000000000       20.2756643795       -0.0096672896
     2824.0000000000       20.0961970925       -0.0095940572
     2840.0000000000       19.9202134991       -0.0095181880
     2856.0000000000       19.7475964688       -0.0094399121
     2872.0000000000       19.5782346074       -0.0093594482
     2888.0000000000       19.4120219124       -0.0092770035
     2904.0000000000       19.2488574521       -0.0091927741
     2920.0000000000       19.0886450651       -0.0091069458
     2936.0000000000       18.9312930811       -0.0090196942
     2952.0000000000       18.7767140590       -0.0089311851
     2968.0000000000       18.6248245425       -0.0088415751
     2984.0000000000       18.4755448321       -0.0087510119
     3000.0000000000       18.3287987712       -0.0086596346
     3016.0000000000       18.1845135468       -0.0085675744
     3032.0000000000       18.0426195020       -0.0084749545
     3048.0000000000       17.9030499613       -0.0083818908
     3064.0000000000       17.7657410670       -0.0082884920
     3080.0000000000       17.6306316250       -0.0081948603
     3096.0000000000       17.4976629612       -0.0081010912
     3112.0000000000       17.3667787866       -0.0080072743
     3128.0000000000       17.2379250706       -0.0079134934
     3144.0000000000       17.1110499221       -0.0078198266
     3160.0000000000       16.9861034780       -0.0077263470
     3176.0000000000       16.8630377987       -0.0076331224
     3192.0000000000       16.7418067692       -0.0075402163
     3208.0000000000       16.6223660069       -0.0074476874
     3224.0000000000       16.5046727745       -0.0073555902
     3240.0000000000       16.3886858982       -0.0072639752
     3256.0000000000       16.2743656907       -0.0071728893
     3272.0000000000       16.1616738786       -0.0070823754
     3288.0000000000       16.0505735342       -0.0069924734
     3304.0000000000       15.9410290110       -0.0069032196
     3320.0000000000       15.8330058831       -0.0068146475
     3336.0000000000       15.7264708882       -0.0067267878
     3352.0000000000       15.6213918733       -0.0066396681
     3368.0000000000       15.5177377439       -0.0065533139
     3384.0000000000       15.4154784159       -0.0064677479
     3400.0000000000       15.3145847703       -0.0063829909
     3416.0000000000       15.2150286098       -0.0062990612
     3432.0000000000       15.1167826188       -0.0062159753
     3448.0000000000       15.0198203247       -0.0061337478
     3464.0000000000       14.9241160615       -0.0060523913
     3480.0000000000       14.8296449355       -0.0059719170
     3496.0000000000       14.7363827928       -0.0058923345
     3512.0000000000       14.6443061882       -0.0058136517
     3528.0000000000       14.5533923564       -0.0057358752
     3544.0000000000       14.4636191837       -0.0056590106
     3560.0000000000       14.3749651821       -0.0055830619
     3576.0000000000       14.2874094642       -0.0055080321
     3592.0000000000       14.2009317194       -0.0054339233
     3608.0000000000       14.1155121916       -0.0053607363
     3624.0000000000       14.0311316575       -0.0052884712
     3640.0000000000       13.9477714065       -0.0052171273
     3656.0000000000       13.8654132212       -0.0051467028
     3672.0000000000       13.7840393592       -0.0050771955
     3688.0000000000       13.7036325351       -0.0050086023
     3704.0000000000       13.6241759043       -0.0049409196
     3720.0000000000       13.5456530470       -0.0048741430
     3736.0000000000       13.4680479529       -0.0048082677
     3752.0000000000       13.3913450066       -0.0047432884
     3768.0000000000       13.3155289741       -0.0046791994
     3784.0000000000       13.2405849897       -0.0046159943
     3800.0000000000       13.1664985430       -0.0045536667
     3816.0000000000       13.0932554673       -0.0044922094
     3832.0000000000       13.0208419281       -0.0044316153
     3848.0000000000       12.9492444117       -0.0043718768
     3864.0000000000       12.8784497153       -0.0043129859
     3880.0000000000       12.8084449366       -0.0042549346
     3896.0000000000       12.7392174643       -0.0041977146
     3912.0000000000       12.6707549688       -0.0041413173
     3928.0000000000       12.6030453936       -0.0040857341
     3944.0000000000       12.5360769466       -0.0040309562
     3960.0000000000       12.4698380923       -0.0039769745
     3976.0000000000       12.4043175435       -0.0039237799
     3992.0000000000       12.3395042546       -0.0038713634
     4008.0000000000       12.2753874137       -0.0038197156
     4024.0000000000       12.2119564364       -0.0037688271
     4040.0000000000       12.1492009587       -0.0037186887
     4056.0000000000       12.0871108306       -0.0036692908
     4072.0000000000       12.0256761106       -0.0036206241
     4088.0000000000       11.9648870592       -0.0035726789
     4104.0000000000       11.9047341337       -0.0035254460
     4120.0000000000       11.8452079823       -0.0034789156
     4136.0000000000       11.7862994392       -0.0034330785
     4152.0000000000       11.7279995198       -0.0033879251
     4168.0000000000       11.6702994152       -0.0033434461
     4184.0000000000       11.6131904879       -0.0032996320
     4200.0000000000       11.5566642672       -0.0032564734
     4216.0000000000       11.5007124451       -0.0032139612
     4232.0000000000       11.4453268717       -0.0031720860
     4248.0000000000       11.3904995513       -0.0031308386
     4264.0000000000       11.3362226385       -0.0030902100
     4280.0000000000       11.2824884344       -0.0030501911
     4296.0000000000       11.2292893831       -0.0030107729
     4312.0000000000       11.1766180677       -0.0029719465
     4328.0000000000       11.1244672075       -0.0029337031
     4344.0000000000       11.0728296543       -0.0028960338
     4360.0000000000       11.0216983891       -0.0028589302
     4376.0000000000       10.9710665193       -0.0028223835
     4392.0000000000       10.9209272758       -0.0027863854
     4408.0000000000       10.8712740094       -0.0027509273
     4424.0000000000       10.8221001890       -0.0027160011
     4440.0000000000       10.7733993979       -0.0026815985
     4456.0000000000       10.7251653318       -0.0026477115
     4472.0000000000       10.6773917961       -0.0026143319
     4488.0000000000       10.6300727031       -0.0025814519
     4504.0000000000       10.5832020701       -0.0025490637
     4520.0000000000       10.5367740166       -0.0025171595
     4536.0000000000       10.4907827623       -0.0024857319
     4552.0000000000       10.4452226248       -0.0024547731
     4568.0000000000       10.4000880175       -0.0024242759
     4584.0000000000       10.3553734475       -0.0023942329
     4600.0000000000       10.3110735135       -0.0023646369
     4616.0000000000       10.2671829040       -0.0023354808
     4632.0000000000       10.2236963952       -0.0023067576
     4648.0000000000       10.1806088493       -0.0022784603
     4664.0000000000       10.1379152126       -0.0022505823
     4680.0000000000       10.0956105140       -0.0022231166
     4696.0000000000       10.0536898626       -0.0021960569
     4712.0000000000       10.0121484469       -0.0021693964
     4728.0000000000        9.9709815327       -0.0021431289
     4744.0000000000        9.9301844614       -0.0021172480
     4760.0000000000        9.8897526491       -0.0020917475
     4776.0000000000        9.8496815841       -0.0020666212
     4792.0000000000        9.8099668265       -0.0020418632
     4808.0000000000        9.7706040062       -0.0020174674
     4824.0000000000        9.7315888213       -0.0019934280
     4840.0000000000        9.6929170375       -0.0019697394
     4856.0000000000        9.6545844860       -0.0019463957
     4872.0000000000        9.6165870628       -0.0019233916
     4888.0000000000        9.5789207271       -0.0019007213
     4904.0000000000        9.5415815002       -0.0018783797
     4920.0000000000        9.5045654644       -0.0018563613
     4936.0000000000        9.4678687615       -0.0018346609
     4952.0000000000        9.4314875922       -0.0018132734
     4968.0000000000        9.3954182146       -0.0017921938
     4984.0000000000        9.3596569430       -0.0017714170
